timestamp,emg1,emg2,emg3
0,2574.0,3574.0,4504.0
1,2574.0,3574.0,4504.0
2,2574.0,3574.0,4504.0
3,2574.0,3574.0,4504.0
4,2574.0,3574.0,4504.0
5,2574.0,3574.0,3973.0
6,2574.0,3574.0,1575.0
7,4449.0,3574.0,1575.0
8,4702.0,3574.0,1575.0
9,4702.0,3574.0,1575.0
10,4702.0,3574.0,1575.0
11,4702.0,3574.0,1575.0
12,4702.0,3574.0,1575.0
13,2907.0,3574.0,1575.0
14,2907.0,3574.0,1575.0
15,5628.0,3574.0,1575.0
16,5628.0,3574.0,1575.0
17,56285628.0,3574.0,3617.0
18,5628.0,3003.0,3617.0
19,5628.0,3003.0,3617.0
20,840.0,2221.0,3617.0
21,8467.0,2221.0,4796.0
22,8467.0,2549.0,4796.0
23,8467.0,2549.0,4796.0
24,8467.0,1852.0,4796.0
25,8467.0,1852.0,4796.0
26,8467.0,1852.0,4355.0
27,8467.0,1852.0,4355.0
28,8467.0,1852.0,4038.0
29,8467.0,1852.0,4038.0
30,67.0,1852.0,4038.0
31,84467.0,1975.0,4038.0
32,8467.0,1975.0,4038.0
33,8467.0,3083.0,4038.0
34,8484.0,3083.0,4038.0
35,8484.0,3083.0,3176.0
36,8484.0,3083.0,2685.0
37,8484.0,3083.0,2685.0
38,6133.0,3083.0,2685.0
39,6133.0,3083.0,2685.0
40,1515.0,3083.0,2685.0
41,1515.0,3083.0,4812.0
42,1515.0,3083.0,3189.0
43,15.0,3083.0,3189.0
44,15515.0,3083.0,3189.0
45,1515.0,2498.0,3189.0
46,1515.0,3305.0,3189.0
47,1515.0,3305.0,3189.0
48,1515.0,3305.0,7496.0
49,1515.0,3305.0,7496.0
50,1515.0,3305.0,7496.0
51,1515.0,3305.0,7496.0
52,6402.0,3305.0,7496.0
53,6402.0,3305.0,7496.0
54,4662.0,3305.0,7496.0
55,4662.0,3305.0,7496.0
56,4662.0,3305.0,7496.0
57,4662.0,2150.0,7496.0
58,4662.0,2150.0,7496.0
59,4662.0,2150.0,7496.0
60,4662.0,2150.0,7496.0
61,4683.0,2150.0,7496.0
62,4683.0,2150.0,7496.0
63,4683.0,2150.0,7496.0
64,4683.0,2150.0,7496.0
65,4683.0,2150.0,7496.0
66,4683.0,2524.0,7496.0
67,4683.0,2524.0,7496.0
68,4683.0,2524.0,7496.0
69,4683.0,2524.0,4394.0
70,4683.0,2477.0,4394.0
71,4683.0,2477.0,4394.0
72,4683.0,2477.0,4394.0
73,4683.0,1803.0,4394.0
74,4683.0,1803.0,4394.0
75,4683.0,2949.0,4394.0
76,4683.0,2793.0,4394.0
77,4683.0,2793.0,4394.0
78,4683.0,3822.0,3726.0
79,4683.0,3822.0,3726.0
80,4683.0,3822.0,1758.0
81,4683.0,3822.0,1758.0
82,4683.0,3822.0,8808.0
83,4683.0,3122.0,8808.0
84,4683.0,3122.0,8808.0
85,4683.0,3122.0,8808.0
86,4683.0,3122.0,4532.0
87,4683.0,1891.0,4532.0
88,4683.0,1891.0,4532.0
89,4683.0,1891.0,4532.0
90,4683.0,1891.0,4532.0
91,4683.0,2092.0,4532.0
92,4683.0,2092.0,4532.0
93,4683.0,2092.0,4435.0
94,4683.0,2092.0,4435.0
95,4683.0,2092.0,2150.0
96,4683.0,2092.0,2150.0
97,4683.0,2092.0,2150.0
98,4683.0,1857.0,2150.0
99,4683.0,1857.0,2150.0
100,4683.0,1857.0,2150.0
101,4683.0,1857.0,2150.0
102,4683.0,1857.0,2150.0
103,4683.0,1675.0,2150.0
104,4683.0,1675.0,2150.0
105,4683.0,1675.0,2150.0
106,4683.0,1810.0,2150.0
107,4683.0,1810.0,2150.0
108,4683.0,777.0,2150.0
109,4683.0,2519.0,2150.0
110,4683.0,2519.0,2150.0
111,4683.0,1646.0,2150.0
112,4683.0,1646.0,2150.0
113,4683.0,1646.0,2150.0
114,4683.0,1646.0,2150.0
115,4683.0,1646.0,2150.0
116,5199.0,1646.0,2150.0
117,5199.0,1646.0,2150.0
118,5199.0,1646.0,3990.0
119,5199.0,1646.0,3990.0
120,5199.0,1646.0,3990.0
121,5199.0,1646.0,3990.0
122,5199.0,1646.0,5036.0
123,400.0,1646.0,5036.0
124,5199.0,1646.0,5036.0
125,5199.0,1646.0,2145.0
126,2259.0,1646.0,2145.0
127,2259.0,1646.0,2145.0
128,2259.0,1646.0,2145.0
129,2259.0,1646.0,2145.0
130,2259.0,1646.0,3451.0
131,2259.0,1646.0,3451.0
132,2259.0,1498.0,4404.0
133,2259.0,1498.0,3805.0
134,2259.0,2565.0,3805.0
135,2259.0,2565.0,3805.0
1894,5859.0,2504.0,3943.0
1895,5859.0,2504.0,3463.0
1896,5859.0,2504.0,2237.0
1897,5859.0,2504.0,2237.0
1898,5859.0,2504.0,2237.0
1899,5859.0,2504.0,2237.0
1900,5859.0,2504.0,2557.0
1901,5859.0,2504.0,4429.0
1902,5859.0,2504.0,3866.0
1903,5859.0,2504.0,3866.0
1904,5145.0,2504.0,3866.0
1905,5145.0,2504.0,3866.0
1906,5145.0,2504.0,3866.0
1907,5145.0,2504.0,3866.0
1908,5145.0,2504.0,4088.0
1909,5145.0,2504.0,4088.0
1910,5145.0,2504.0,4088.0
1911,5145.0,2504.0,4088.0
1912,5145.0,2504.0,4088.0
1913,5145.0,2504.0,4088.0
1914,5145.0,2504.0,4088.0
1915,5145.0,2504.0,1414.0
1916,5145.0,2504.0,5246.0
1917,5145.0,1168.0,5246.0
1918,5145.0,1168.0,5246.0
1919,5145.0,1168.0,5246.0
1920,5145.0,1168.0,5246.0
1921,5145.0,1648.0,5246.0
1922,5145.0,1648.0,5246.0
1923,5145.0,1648.0,4156.0
1924,5145.0,1648.0,988.0
1925,5145.0,1648.0,988.0
1926,5145.0,1648.0,988.0
1927,5145.0,1648.0,988.0
1928,5145.0,1648.0,988.0
1929,5145.0,1648.0,988.0
1930,5145.0,1648.0,988.0
1931,5145.0,1648.0,988.0
1932,5145.0,1648.0,988.0
1933,5145.0,1648.0,988.0
1934,5145.0,1648.0,988.0
1935,5145.0,1648.0,988.0
1936,5145.0,1648.0,2594.0
1937,5145.0,1648.0,2594.0
1938,5145.0,1648.0,2594.0
1939,5145.0,1648.0,2594.0
1940,5145.0,1648.0,2594.0
1941,5145.0,1648.0,2594.0
1942,5145.0,1567.0,2594.0
1943,5145.0,1567.0,2594.0
1944,5145.0,3951.0,3215.0
1945,5145.0,3951.0,3215.0
1946,5145.0,1761.0,3215.0
1947,5145.0,1761.0,3215.0
1948,5145.0,1761.0,5216.0
1949,5145.0,1761.0,5216.0
1950,5145.0,1761.0,5216.0
1951,5145.0,1761.0,5216.0
1952,5145.0,3008.0,5216.0
1953,5145.0,2236.0,5216.0
1954,5145.0,2236.0,5216.0
1955,5145.0,3418.0,6369.0
1956,5145.0,3418.0,6369.0
1957,5145.0,3418.0,6369.0
1958,6551.0,3418.0,6369.0
1959,6551.0,3418.0,6369.0
1960,3914.0,3418.0,6369.0
1961,4155.0,3418.0,6369.0
1962,4155.0,3418.0,2548.0
1963,2721.0,3418.0,2548.0
1964,2721.0,3418.0,2548.0
1965,2721.0,3418.0,2548.0
1966,2721.0,3418.0,2548.0
1967,2721.0,2676.0,2548.0
1968,2721.0,2676.0,2548.0
1969,2721.0,2676.0,2548.0
1970,2721.0,2676.0,2548.0
1971,2721.0,2676.0,2548.0
1972,2721.0,2676.0,2548.0
1973,2721.0,2602.0,2548.0
1974,2721.0,2602.0,2548.0
1975,2721.0,2602.0,2548.0
1976,2721.0,2602.0,2548.0
1977,2721.0,2602.0,2548.0
1978,2721.0,2602.0,2548.0
1979,2721.0,2602.0,2548.0
1980,2721.0,2888.0,2548.0
1981,2721.0,2888.0,2548.0
1982,2721.0,2152.0,2548.0
1983,2721.0,2152.0,2548.0
1984,2721.0,2152.0,2548.0
1985,500.0,2152.0,2548.0
1986,2721.0,2152.0,2548.0
1987,2721.0,2152.0,4894.0
1988,2721.0,2152.0,4894.0
1989,2721.0,2152.0,4894.0
1990,2721.0,2152.0,4894.0
1991,2721.0,2152.0,4894.0
1992,2721.0,2152.0,4894.0
1993,5063.0,2152.0,4894.0
1994,5063.0,3942.0,4894.0
1995,5063.0,3942.0,4894.0
1996,5063.0,3942.0,4894.0
1997,5063.0,3942.0,4894.0
1998,5063.0,3942.0,4894.0
1999,5063.0,2986.0,4894.0
2000,5063.0,2986.0,4894.0
2001,5063.0,2986.0,1282.0
2002,5063.0,2986.0,1282.0
2003,5063.0,2986.0,1282.0
2004,5063.0,2986.0,1282.0
2005,5063.0,2986.0,1282.0
2006,3805.0,2986.0,1282.0
2007,3805.0,2986.0,1282.0
2008,3805.0,2986.0,1282.0
2009,3805.0,2986.0,1282.0
2010,3805.0,2986.0,1282.0
2011,3805.0,2986.0,2316.0
2012,3805.0,2986.0,2316.0
2013,3805.0,2986.0,2316.0
2014,3805.0,2986.0,2316.0
2015,3805.0,2577.0,2316.0
2016,3805.0,2577.0,2316.0
2017,3805.0,2577.0,2316.0
2018,3805.0,5174.0,2316.0
2019,3805.0,5174.0,2316.0
2020,3805.0,5174.0,2316.0
2021,3805.0,5174.0,2316.0
2022,3805.0,5174.0,2316.0
2023,3805.0,5174.0,2316.0
2024,714.0,5174.0,2316.0
2025,33714.0,5174.0,2316.0
3627,1016.0,1416.0,1451.0
3628,523.0,491.0,4916.0
3629,591.0,17607.0,1760.0
3630,640.0,360.0,2743.0
3631,789.0,89.0,2591.0
3632,1122.0,2591122.0,2591.0
4040,1841.0,3673.0,5299.0
4041,1841.0,3673.0,5299.0
4042,1841.0,3673.0,5299.0
4043,1841.0,3673.0,5299.0
4044,1051.0,3673.0,5299.0
4045,1051.0,3673.0,5299.0
4046,1051.0,3673.0,5299.0
4047,1051.0,3673.0,5299.0
4048,1051.0,3673.0,5299.0
4049,1051.0,3673.0,5299.0
4050,1051.0,3673.0,5299.0
4051,1051.0,3673.0,5299.0
4052,1051.0,3673.0,5299.0
4053,1051.0,3673.0,5299.0
4054,1051.0,3673.0,5299.0
4055,1051.0,3673.0,5299.0
4056,1051.0,3673.0,5299.0
4057,1377.0,3673.0,5299.0
4058,1377.0,3673.0,5299.0
4059,1377.0,3673.0,5299.0
4060,1377.0,3673.0,5299.0
4061,1377.0,3673.0,5299.0
4062,1377.0,3673.0,5299.0
4063,1377.0,3673.0,5299.0
4064,1377.0,3673.0,5299.0
4065,1377.0,3673.0,5299.0
4066,1377.0,3673.0,5299.0
4067,1096.0,3673.0,5299.0
4068,646.0,1404.0,5299.0
4069,646.0,1404.0,5299.0
4070,646.0,1404.0,5299.0
4071,851.0,1404.0,5299.0
4072,1130.0,1404.0,5299.0
4073,1130.0,1404.0,5299.0
4074,779.0,1404.0,5299.0
4075,779.0,1404.0,5299.0
4076,611.0,1404.0,5299.0
4077,611.0,1404.0,5299.0
4078,668.0,1404.0,5299.0
4079,983.0,1404.0,5299.0
4080,983.0,1404.0,5299.0
4081,983.0,1404.0,5299.0
4082,983.0,1404.0,5299.0
4083,983.0,1404.0,5299.0
4084,983.0,1404.0,5299.0
4085,983.0,1404.0,5299.0
4086,983.0,1404.0,5299.0
4087,983.0,1404.0,5299.0
4088,1249.0,1404.0,5299.0
4089,1249.0,1404.0,5299.0
4090,1249.0,1404.0,5299.0
4091,1249.0,1404.0,5299.0
4092,1249.0,1404.0,5299.0
4093,1249.0,1404.0,5299.0
4094,1196.0,1404.0,5299.0
4095,1196.0,1404.0,5299.0
4096,1196.0,1404.0,5299.0
4097,1196.0,1404.0,5299.0
4098,1196.0,1404.0,5299.0
4099,769.0,3585.0,3514.0
4871,1269.0,1255.0,3921.0
4872,1269.0,1255.0,2261.0
4873,1269.0,831.0,2261.0
4874,1269.0,831.0,3907.0
4875,1269.0,831.0,3907.0
4876,1269.0,831.0,3907.0
4877,1269.0,831.0,3907.0
4878,1269.0,831.0,3907.0
4879,1269.0,831.0,3907.0
4880,1269.0,831.0,3907.0
4881,1269.0,1332.0,3907.0
4882,1269.0,1332.0,3907.0
4883,1269.0,1332.0,3907.0
4884,1269.0,1332.0,3907.0
4885,1269.0,1429.0,3715.0
4886,1269.0,1429.0,3715.0
4887,1590.0,1429.0,3715.0
4888,1590.0,1429.0,3715.0
4889,1590.0,1429.0,3715.0
4890,1590.0,1429.0,3715.0
4891,1539.0,1429.0,3715.0
4892,1539.0,1429.0,3715.0
4893,1539.0,1429.0,3715.0
4894,1357.0,1429.0,3715.0
4895,1357.0,1429.0,3715.0
4896,1572.0,1429.0,3715.0
4897,572.0,1429.0,3715.0
4898,11572.0,1429.0,3715.0
4899,1572.0,1429.0,3715.0
4900,1572.0,1429.0,3715.0
4901,1572.0,517.0,3715.0
4902,901.0,517.0,3715.0
4903,1.0,517.0,3715.0
4904,1661.0,517.0,3715.0
4905,1243.0,517.0,3715.0
4906,1660.0,517.0,3715.0
4907,1660.0,517.0,3715.0
4908,1660.0,517.0,3715.0
4909,985.0,517.0,3715.0
4910,985.0,517.0,3715.0
4911,901.0,447.0,3715.0
4912,901.0,447.0,3715.0
4913,1195.0,447.0,3715.0
4914,1155.0,1047.0,3715.0
4915,1155.0,1047.0,3715.0
4916,1155.0,1047.0,3715.0
4917,1096.0,1047.0,3715.0
4918,1096.0,1047.0,3715.0
4919,1096.0,1047.0,3715.0
4920,1096.0,1047.0,3715.0
4921,1096.0,1047.0,3715.0
4922,358.0,1047.0,3715.0
4923,1331.0,1047.0,3715.0
4924,1331.0,1047.0,3715.0
4925,1331.0,1047.0,3715.0
4926,1331.0,1047.0,3715.0
4927,1331.0,1047.0,3715.0
4928,1331.0,1047.0,3715.0
4929,1331.0,1047.0,3715.0
4930,1331.0,1047.0,3715.0
4931,1331.0,1047.0,3715.0
4932,919.0,1047.0,3715.0
4933,919.0,623.0,3715.0
4934,919.0,623.0,3715.0
4935,919.0,623.0,3715.0
4936,919.0,623.0,1195.0
4937,919.0,623.0,1195.0
4938,919.0,623.0,1195.0
4939,919.0,623.0,1195.0
4940,19.0,623.0,1195.0
4941,9919.0,623.0,1195.0
4942,919.0,695.0,1195.0
4943,1784.0,695.0,1195.0
4944,1784.0,695.0,1195.0
4945,1784.0,695.0,1195.0
4946,1784.0,695.0,7206.0
4947,1784.0,695.0,7206.0
4948,1869.0,695.0,3775.0
4949,900.0,695.0,3775.0
4950,1869.0,695.0,3775.0
4951,1869.0,695.0,3775.0
4952,1869.0,436.0,3775.0
4953,1869.0,436.0,6073.0
4954,1869.0,436.0,6073.0
4955,1869.0,436.0,2216.0
4956,1869.0,436.0,2783.0
4957,1869.0,436.0,4568.0
4958,1869.0,778.0,4568.0
4959,1869.0,778.0,4568.0
4960,869.0,778.0,4568.0
4961,1869.0,778.0,3200.0
4962,1869.0,778.0,3200.0
4963,1869.0,778.0,3200.0
4964,1869.0,829.0,3200.0
4965,1869.0,829.0,3200.0
4966,111869.0,597.0,3200.0
4967,1869.0,597.0,3200.0
4968,1869.0,597.0,3200.0
4969,1869.0,597.0,3200.0
4970,1695.0,597.0,3200.0
4971,494.0,597.0,3420.0
4972,494.0,597.0,3420.0
4973,1366.0,597.0,3420.0
4974,1366.0,597.0,3420.0
4975,1366.0,597.0,3420.0
4976,1366.0,597.0,3420.0
4977,1366.0,597.0,3420.0
4978,1366.0,874.0,3420.0
4979,1366.0,874.0,3420.0
4980,1366.0,874.0,3420.0
4981,1366.0,874.0,2221.0
4982,1366.0,874.0,2221.0
4983,1366.0,874.0,2221.0
4984,1366.0,874.0,3715.0
4985,1366.0,874.0,3715.0
4986,849.0,874.0,3715.0
4987,849.0,874.0,3715.0
4988,1422.0,874.0,3715.0
4989,1422.0,874.0,3715.0
4990,1422.0,874.0,3715.0
4991,1422.0,874.0,3715.0
4992,1422.0,874.0,3715.0
4993,1026.0,874.0,3715.0
4994,1026.0,874.0,3715.0
4995,1026.0,874.0,3715.0
4996,1026.0,874.0,3715.0
4997,6.0,874.0,3715.0
4998,1026.0,874.0,3715.0
4999,1026.0,874.0,3715.0
5000,1026.0,874.0,3715.0
5001,1026.0,874.0,3715.0
5002,1026.0,749.0,3715.0
5003,1841.0,749.0,3715.0
5004,1841.0,749.0,3715.0
5005,1841.0,749.0,3715.0
5006,1841.0,749.0,3715.0
5007,1328.0,749.0,3715.0
5008,1328.0,749.0,3715.0
5009,1328.0,749.0,2763.0
5010,1328.0,766.0,2763.0
6784,348.0,3087.0,1126.0
6785,348.0,3087.0,1126.0
6786,348.0,3087.0,1772.0
6787,261.0,3087.0,1772.0
6788,361.0,3087.0,1772.0
6789,2444.0,3087.0,1772.0
6790,444.0,3087.0,1772.0
6791,444.0,2407.0,1772.0
6792,444.0,2407.0,1772.0
6793,444.0,2407.0,1772.0
6794,44.0,2407.0,1772.0
6795,444.0,2082.0,1049.0
6796,444.0,2082.0,1049.0
6797,444.0,2129.0,1049.0
6798,444.0,2129.0,1049.0
6799,44.0,2129.0,1049.0
6800,44444.0,2129.0,1049.0
6801,444.0,2129.0,1049.0
6802,505.0,2129.0,1049.0
6803,505.0,2129.0,1049.0
6804,505.0,2817.0,1049.0
6805,505.0,2817.0,1049.0
6806,382.0,2817.0,1049.0
6807,382.0,2817.0,1049.0
6808,382.0,2817.0,1049.0
6809,357.0,2295.0,1049.0
6810,1043.0,2295.0,1049.0
6811,1043.0,2295.0,1049.0
6812,279.0,2295.0,1049.0
6813,279.0,2295.0,736.0
6814,279.0,2295.0,1496.0
6815,279.0,2295.0,1496.0
6816,279.0,2295.0,1496.0
6817,279.0,2295.0,1496.0
6818,279.0,2295.0,1496.0
6819,279.0,2295.0,1496.0
6820,279.0,2295.0,1496.0
6821,715.0,2295.0,1496.0
6822,715.0,2295.0,1496.0
6823,715.0,2295.0,1496.0
6824,715.0,2295.0,1496.0
6825,789.0,2295.0,1879.0
6826,789.0,2295.0,1879.0
6827,789.0,2295.0,1879.0
6828,789.0,2295.0,1879.0
6829,789.0,2295.0,1879.0
6830,789.0,2295.0,1879.0
6831,789.0,2295.0,1879.0
6832,789.0,2295.0,1879.0
6833,789.0,2295.0,1879.0
6834,789.0,2295.0,1879.0
6835,783.0,2295.0,1879.0
6836,783.0,2295.0,1879.0
6837,783.0,2295.0,1879.0
6838,783.0,2295.0,1879.0
6839,783.0,2295.0,1879.0
6840,78.0,2295.0,948.0
6841,783.0,2295.0,1531.0
6842,783.0,2295.0,1531.0
6843,783.0,2295.0,1653.0
6844,783.0,2295.0,1653.0
6845,783.0,2295.0,1653.0
6846,783.0,2295.0,1653.0
6847,348.0,2295.0,1653.0
6848,1071.0,2295.0,1653.0
6849,1071.0,2295.0,1653.0
6850,591.0,2295.0,1653.0
6851,591.0,2295.0,1653.0
6852,627.0,2295.0,1653.0
6853,627.0,2295.0,1653.0
6854,627.0,2295.0,1653.0
6855,627.0,2295.0,1653.0
6856,627.0,2295.0,1653.0
6857,627.0,2295.0,1653.0
6858,627.0,2295.0,1653.0
6859,627.0,2295.0,1653.0
6860,627.0,2295.0,1653.0
6861,410.0,2295.0,1653.0
6862,410.0,2295.0,1653.0
6863,410.0,2295.0,1653.0
6864,410.0,2295.0,1653.0
6865,410.0,2295.0,1653.0
6866,230.0,2295.0,1653.0
6867,171.0,2295.0,1653.0
6868,171.0,2295.0,1653.0
6869,171.0,2295.0,1653.0
6870,711.0,2295.0,1653.0
6871,711.0,2295.0,1165.0
6872,711.0,2295.0,1165.0
6873,711.0,2295.0,1165.0
6874,711.0,2295.0,1165.0
6875,780.0,2295.0,1165.0
6876,780.0,2295.0,1165.0
6877,7557.0,2295.0,1165.0
6878,757.0,2295.0,1165.0
6879,757.0,2295.0,1165.0
6880,757.0,2295.0,1756.0
6881,757.0,2295.0,1756.0
6882,445.0,2295.0,1756.0
6883,353.0,2295.0,1756.0
6884,353.0,2295.0,1756.0
6885,353.0,2295.0,1756.0
6886,353.0,2295.0,1756.0
6887,353.0,2295.0,1756.0
6888,353.0,2295.0,1756.0
6889,353.0,2295.0,1756.0
6890,353.0,2295.0,1756.0
6891,353.0,2295.0,1756.0
6892,657.0,2295.0,1756.0
6893,657.0,2295.0,1756.0
6894,657.0,2295.0,1756.0
6895,657.0,2295.0,1756.0
6896,300.0,2295.0,1756.0
6897,657.0,2295.0,1756.0
6898,657.0,2295.0,1756.0
6899,660.0,2295.0,1756.0
6900,660.0,2295.0,1756.0
6901,660.0,2295.0,1756.0
6902,660.0,2295.0,1756.0
6903,883.0,2295.0,1756.0
6904,883.0,2295.0,1756.0
6905,883.0,2295.0,1756.0
6906,883.0,2295.0,1756.0
6907,883.0,2295.0,1756.0
6908,504.0,2295.0,1756.0
6909,504.0,2295.0,1756.0
6910,513.0,2295.0,1506.0
6911,513.0,2295.0,1506.0
6912,513.0,2295.0,621.0
6913,513.0,2295.0,621.0
6914,513.0,2295.0,621.0
8495,535.0,462.0,1034.0
8496,228.0,462.0,1034.0
8497,228.0,462.0,1034.0
8498,228.0,462.0,1034.0
8499,228.0,462.0,1034.0
8500,354.0,462.0,1034.0
8501,278.0,278.0,1034.0
8502,278.0,278.0,1034.0
8503,278.0,278.0,1034.0
8504,278.0,218.0,1034.0
8505,278.0,218.0,1131.0
8506,278.0,218.0,1131.0
8507,278.0,218.0,1131.0
8508,278.0,218.0,1131.0
8509,278.0,218.0,1131.0
8510,278.0,218.0,1131.0
8511,448.0,218.0,1131.0
8512,448.0,218.0,1131.0
8513,448.0,162.0,1131.0
8514,448.0,162.0,1131.0
8515,448.0,386.0,1131.0
8516,448.0,386.0,1131.0
8517,448.0,386.0,1131.0
8518,33.0,340.0,1131.0
8519,2993.0,340.0,1131.0
8520,293.0,379.0,1131.0
8521,293.0,379.0,1131.0
8522,293.0,329.0,1131.0
8523,293.0,329.0,770.0
8524,293.0,329.0,770.0
8525,293.0,329.0,770.0
8526,293.0,329.0,597.0
8527,293.0,329.0,597.0
8528,293.0,329.0,597.0
8529,293.0,329.0,597.0
8530,293.0,295.0,597.0
8531,293.0,295.0,597.0
8532,293.0,295.0,597.0
8533,293.0,295.0,597.0
8534,293.0,295.0,1508.0
8535,400.0,295.0,1508.0
8536,400.0,295.0,1508.0
8537,379.0,295.0,1508.0
8538,379.0,295.0,386.0
8539,379.0,295.0,1160.0
8540,379.0,295.0,1160.0
8541,379.0,295.0,1160.0
8542,379.0,295.0,1160.0
8543,379.0,295.0,1160.0
8544,379.0,295.0,1503.0
8545,379.0,295.0,1503.0
8546,379.0,295.0,1503.0
8547,379.0,295.0,1503.0
8548,379.0,338.0,1503.0
8549,379.0,338.0,1503.0
8550,379.0,460.0,1503.0
8551,379.0,460.0,1503.0
8552,379.0,460.0,1503.0
8553,343.0,460.0,1503.0
8554,343.0,460.0,1503.0
8555,343.0,460.0,1503.0
8556,343.0,460.0,1503.0
8557,343.0,460.0,1503.0
8558,343.0,460.0,1503.0
8559,343.0,460.0,1503.0
8560,343.0,460.0,1503.0
8561,343.0,460.0,1503.0
8562,343.0,460.0,1503.0
8563,343.0,460.0,1503.0
8564,343.0,460.0,1503.0
8565,343.0,460.0,1503.0
8566,343.0,460.0,1503.0
8567,343.0,368.0,1503.0
8568,343.0,368.0,1503.0
8569,343.0,368.0,1503.0
8570,343.0,368.0,1503.0
8571,343.0,368.0,593.0
8572,343.0,368.0,764.0
8573,343.0,368.0,764.0
8574,343.0,368.0,648.0
8575,343.0,368.0,648.0
8576,343.0,368.0,648.0
8577,343.0,368.0,648.0
8578,343.0,179.0,648.0
8579,343.0,179.0,648.0
8580,343.0,179.0,648.0
8581,343.0,179.0,648.0
8582,343.0,179.0,782.0
8583,343.0,179.0,782.0
8584,343.0,179.0,782.0
8585,343.0,179.0,782.0
8586,343.0,179.0,782.0
8587,343.0,179.0,782.0
8588,343.0,179.0,782.0
8589,343.0,179.0,832.0
8590,343.0,179.0,832.0
8591,343.0,179.0,832.0
8592,343.0,179.0,832.0
8593,343.0,179.0,832.0
8594,343.0,179.0,832.0
8595,343.0,179.0,832.0
8596,343.0,259.0,832.0
8597,343.0,259.0,832.0
8598,343.0,259.0,832.0
8599,343.0,271.0,832.0
8600,343.0,334.0,832.0
8601,343.0,334.0,832.0
8602,343.0,220.0,832.0
8603,343.0,226.0,832.0
8604,343.0,279.0,832.0
8605,343.0,279.0,832.0
8606,343.0,279.0,832.0
8607,343.0,279.0,832.0
8608,343.0,279.0,832.0
8609,343.0,78.0,832.0
8610,343.0,78.0,832.0
8611,343.0,78.0,832.0
8612,343.0,78.0,832.0
8613,3.0,78.0,832.0
8614,343.0,78.0,832.0
8615,343.0,181.0,1494.0
8616,343.0,181.0,1494.0
8617,343.0,181.0,1494.0
8618,343.0,181.0,1494.0
8619,343.0,283.0,1494.0
8620,343.0,283.0,1494.0
8621,343.0,163.0,1494.0
8622,343.0,163.0,1494.0
8623,318.0,163.0,1494.0
8624,318.0,163.0,1494.0
8625,318.0,163.0,1494.0
8626,318.0,163.0,1494.0
8627,318.0,163.0,1494.0
8628,318.0,379.0,1494.0
8629,318.0,414.0,1494.0
8630,318.0,414.0,1494.0
8631,318.0,414.0,691.0
8632,318.0,414.0,691.0
8633,318.0,414.0,691.0
8634,318.0,414.0,691.0
8635,318.0,534.0,691.0
8636,318.0,232.0,691.0
8637,318.0,232.0,691.0
10404,335.0,84.0,1493.0
10405,335.0,84.0,1493.0
10406,335.0,84.0,1493.0
10407,335.0,84.0,1493.0
10408,251.0,84.0,1493.0
10409,251.0,84.0,1493.0
10410,251.0,84.0,1493.0
10411,251.0,84.0,1493.0
10412,452.0,84.0,1493.0
10413,533.0,84.0,1493.0
10414,202.0,84.0,1493.0
10415,202.0,84.0,1493.0
10416,262.0,84.0,1493.0
10417,262.0,84.0,1109.0
10418,264.0,84.0,1109.0
10419,264.0,84.0,1109.0
10420,207.0,84.0,1109.0
10421,207.0,84.0,1109.0
10422,207.0,84.0,1109.0
10423,207.0,420.0,1109.0
10424,207.0,477.0,1109.0
10425,207.0,477.0,1109.0
10426,207.0,477.0,1109.0
10427,207.0,477.0,1109.0
10428,207.0,477.0,1109.0
10429,207.0,477.0,1109.0
10430,207.0,477.0,1109.0
10431,207.0,477.0,1109.0
10432,207.0,477.0,1109.0
10433,207.0,477.0,1109.0
10434,438.0,477.0,1109.0
10435,438.0,477.0,1109.0
10436,438.0,477.0,1109.0
10437,438.0,477.0,1109.0
10438,438.0,477.0,1109.0
10439,438.0,477.0,1109.0
10440,438.0,477.0,1109.0
10441,438.0,477.0,1109.0
10442,269.0,477.0,1109.0
10443,269.0,477.0,1109.0
10444,269.0,477.0,1109.0
10445,269.0,174.0,520.0
10446,269.0,174.0,520.0
10447,269.0,174.0,1102.0
10448,269.0,174.0,1102.0
10449,443.0,174.0,1102.0
10450,207.0,44.0,1102.0
10451,443.0,174.0,111.0
10452,443.0,174.0,1048.0
10453,443.0,174.0,1048.0
10454,443.0,174.0,1061.0
10455,443.0,82.0,1061.0
10456,443.0,168.0,854.0
10457,443.0,178.0,854.0
10458,363.0,178.0,854.0
10459,115.0,178.0,854.0
10460,115.0,178.0,854.0
10461,115.0,227.0,854.0
10462,115.0,227.0,854.0
10463,115.0,242.0,854.0
10464,115.0,242.0,854.0
10465,115.0,174.0,854.0
10466,115.0,174.0,854.0
10467,45.0,174.0,987.0
10468,1115.0,174.0,987.0
10469,115.0,174.0,987.0
10470,115.0,174.0,987.0
10471,115.0,174.0,987.0
10472,115.0,375.0,987.0
10473,115.0,375.0,987.0
10474,412.0,375.0,987.0
10475,412.0,375.0,987.0
10476,412.0,375.0,987.0
10477,412.0,375.0,987.0
10478,412.0,375.0,1785.0
10479,412.0,173.0,1785.0
10480,689.0,173.0,1785.0
10481,689.0,173.0,895.0
10482,689.0,173.0,895.0
10483,193.0,173.0,895.0
10484,193.0,173.0,895.0
10485,193.0,211.0,895.0
10486,193.0,211.0,895.0
10487,193.0,211.0,895.0
10488,193.0,211.0,895.0
10489,19393.0,211.0,895.0
10490,193.0,211.0,895.0
10491,193.0,211.0,898.0
10492,193.0,260.0,898.0
10493,193.0,292.0,898.0
10494,193.0,292.0,898.0
10495,234.0,291.0,898.0
10496,234.0,291.0,898.0
10497,234.0,291.0,898.0
10498,234.0,291.0,898.0
10499,234.0,276.0,898.0
10500,234.0,276.0,898.0
10501,440.0,276.0,898.0
10502,440.0,276.0,898.0
10503,440.0,276.0,898.0
10504,440.0,276.0,912.0
10505,440.0,276.0,912.0
10506,248.0,276.0,912.0
10507,248.0,276.0,912.0
10508,248.0,276.0,912.0
10509,248.0,276.0,912.0
10510,248.0,170.0,912.0
10511,248.0,170.0,912.0
10512,248.0,420.0,912.0
10513,248.0,420.0,912.0
10514,248.0,420.0,912.0
10515,248.0,420.0,912.0
10516,248.0,420.0,954.0
10517,248.0,420.0,954.0
10518,248.0,420.0,954.0
10519,248.0,420.0,954.0
10520,248.0,420.0,954.0
10521,248.0,420.0,954.0
10522,248.0,420.0,954.0
10523,248.0,298.0,481.0
10524,248.0,339.0,481.0
10525,248.0,71.0,481.0
10526,248.0,71.0,481.0
10527,248.0,71.0,481.0
10528,248.0,170.0,481.0
10529,248.0,196.0,481.0
10530,248.0,196.0,481.0
10531,248.0,196.0,481.0
10532,248.0,196.0,481.0
10533,332.0,196.0,481.0
10534,332.0,196.0,481.0
10535,309.0,196.0,481.0
10536,206.0,196.0,481.0
10537,206.0,231.0,481.0
10538,206.0,231.0,997.0
10539,206.0,231.0,997.0
10540,206.0,231.0,1062.0
12199,2565.0,2544.0,344.0
12200,2450.0,2544.0,344.0
12201,1431.0,2544.0,344.0
12202,1431.0,2544.0,344.0
12203,2960.0,2544.0,344.0
12204,2960.0,2544.0,344.0
12205,2708.0,2544.0,344.0
12206,2708.0,2544.0,344.0
12207,1708.0,2544.0,344.0
12208,1708.0,2544.0,344.0
12209,140.0,2544.0,344.0
12210,2308.0,2544.0,344.0
12211,2308.0,2544.0,344.0
12212,2308.0,2544.0,344.0
12213,2308.0,2544.0,344.0
12214,2308.0,2544.0,344.0
12215,2308.0,2544.0,344.0
12216,2891.0,2544.0,419.0
12217,2891.0,2544.0,419.0
12218,2891.0,2544.0,419.0
12219,2448.0,2544.0,419.0
12220,2448.0,2544.0,419.0
12221,2452.0,2544.0,419.0
12222,2452.0,2633.0,419.0
12223,2452.0,1133.0,419.0
12224,2452.0,1133.0,419.0
12225,2452.0,1133.0,419.0
12226,2452.0,1133.0,419.0
12227,1107.0,1133.0,419.0
12228,1107.0,1727.0,419.0
12229,2111.0,1727.0,419.0
12230,2111.0,1727.0,419.0
12231,2111.0,1727.0,419.0
12232,2111.0,1727.0,419.0
12233,2111.0,1727.0,419.0
12234,2111.0,1727.0,419.0
12235,2111.0,2320.0,419.0
12236,1894.0,2320.0,419.0
12237,1894.0,2320.0,419.0
12238,1894.0,2320.0,419.0
12239,1894.0,2845.0,419.0
12240,1894.0,2845.0,419.0
12241,1894.0,2845.0,419.0
12242,1894.0,2845.0,304.0
12243,1685.0,2845.0,304.0
12244,1685.0,2845.0,304.0
12245,685.0,2845.0,304.0
12246,1685.0,2845.0,304.0
12247,1685.0,2845.0,666.0
12248,1685.0,2845.0,266.0
12249,1685.0,2845.0,567.0
12250,2139.0,2845.0,567.0
12251,2139.0,2845.0,567.0
12252,2139.0,2845.0,732.0
12253,2139.0,2845.0,732.0
12254,2139.0,2845.0,732.0
12255,2139.0,2158.0,298.0
12256,2139.0,2158.0,423.0
12257,2139.0,2158.0,423.0
12258,2771.0,2158.0,423.0
12259,2771.0,2158.0,423.0
12260,2771.0,2158.0,423.0
12261,2771.0,2158.0,423.0
12262,2771.0,2158.0,423.0
12263,2771.0,2158.0,423.0
12264,2771.0,2158.0,423.0
12265,2771.0,2158.0,423.0
12266,2771.0,2158.0,423.0
12267,2771.0,2158.0,423.0
12268,2771.0,1200.0,423.0
12269,2771.0,1599.0,423.0
12270,2771.0,1599.0,423.0
12271,2771.0,1599.0,423.0
12272,2771.0,1599.0,423.0
12273,2771.0,1599.0,423.0
12274,2355.0,1599.0,423.0
12275,2355.0,1599.0,423.0
12276,2355.0,1599.0,423.0
12277,2355.0,2361.0,423.0
12278,2355.0,1248.0,423.0
12279,2355.0,4311.0,423.0
12280,2355.0,4311.0,423.0
12281,2355.0,4311.0,423.0
12282,2355.0,2302.0,423.0
12283,2355.0,3048.0,423.0
12284,2355.0,908.0,423.0
12285,2355.0,1435.0,423.0
12286,2355.0,1435.0,423.0
12287,2355.0,1435.0,423.0
12288,2700.0,1435.0,423.0
12289,2355.0,1342.0,423.0
12290,2355.0,1281.0,423.0
12291,2355.0,1281.0,423.0
12292,2355.0,1281.0,423.0
12293,2355.0,1954.0,423.0
12294,2355.0,1954.0,423.0
12295,2355.0,1954.0,423.0
12296,22.0,1954.0,423.0
12297,17771777.0,1954.0,423.0
12298,17777.0,1954.0,423.0
12299,3579.0,1954.0,423.0
12300,3579.0,868.0,423.0
12301,3579.0,868.0,423.0
12302,3579.0,1585.0,423.0
12303,3579.0,1585.0,423.0
12304,3579.0,1585.0,423.0
12305,3579.0,1585.0,423.0
12306,3579.0,1585.0,788.0
12307,3579.0,1585.0,788.0
12308,3579.0,1585.0,788.0
12309,3579.0,1585.0,788.0
12310,3579.0,1994.0,788.0
12311,3579.0,1994.0,788.0
12312,3579.0,1437.0,788.0
12313,3579.0,1437.0,788.0
12314,3579.0,1437.0,788.0
12315,3579.0,3066.0,788.0
12316,3579.0,3066.0,788.0
12317,3579.0,3066.0,788.0
12318,3579.0,3066.0,788.0
12319,3579.0,3066.0,788.0
12320,3579.0,3066.0,788.0
12321,3579.0,3066.0,788.0
12322,3579.0,3066.0,788.0
12323,3579.0,3066.0,788.0
12324,3579.0,3066.0,788.0
12325,3579.0,3066.0,788.0
12326,3579.0,1491.0,788.0
12327,3579.0,1491.0,788.0
12328,3579.0,1491.0,788.0
12329,3579.0,1491.0,788.0
13928,1919.0,2174.0,304.0
13929,3118.0,2174.0,304.0
13930,3118.0,2174.0,304.0
13931,3118.0,2174.0,304.0
13932,3118.0,2174.0,304.0
13933,3118.0,2174.0,304.0
13934,3118.0,2174.0,304.0
13935,3118.0,2174.0,304.0
13936,3118.0,2174.0,304.0
13937,2771.0,2174.0,304.0
13938,2771.0,2174.0,304.0
13939,2771.0,1731.0,304.0
13940,2771.0,1731.0,304.0
13941,2771.0,1731.0,304.0
13942,2771.0,2797.0,304.0
13943,2771.0,1761.0,304.0
13944,2771.0,1761.0,304.0
13945,2771.0,1761.0,449.0
13946,27771.0,1761.0,449.0
13947,27771.0,1761.0,449.0
13948,2771.0,1761.0,449.0
13949,2771.0,1761.0,228.0
13950,2771.0,1761.0,228.0
13951,2090.0,1761.0,270.0
13952,2090.0,1761.0,270.0
13953,2090.0,1761.0,270.0
13954,2090.0,1761.0,270.0
13955,2090.0,1761.0,270.0
13956,2090.0,1761.0,270.0
13957,1433.0,1761.0,270.0
13958,1176.0,1761.0,270.0
13959,1176.0,1761.0,270.0
13960,1047.0,1761.0,270.0
13961,1047.0,1761.0,270.0
13962,1047.0,1761.0,270.0
13963,1047.0,1761.0,270.0
13964,1047.0,1761.0,270.0
13965,1047.0,1761.0,270.0
13966,1047.0,1761.0,270.0
13967,1047.0,1216.0,270.0
13968,1047.0,1216.0,270.0
13969,1047.0,1216.0,270.0
13970,1047.0,2203.0,270.0
13971,1047.0,2203.0,270.0
13972,1047.0,1330.0,270.0
13973,1047.0,3025.0,220.0
13974,1047.0,3025.0,220.0
13975,1047.0,3025.0,220.0
13976,1047.0,3025.0,220.0
13977,1047.0,1405.0,220.0
13978,1047.0,1405.0,220.0
13979,1047.0,1405.0,220.0
13980,1047.0,1405.0,220.0
13981,1047.0,1405.0,220.0
13982,1047.0,1405.0,220.0
13983,1047.0,1405.0,220.0
13984,1047.0,1405.0,220.0
13985,1934.0,1405.0,220.0
13986,1272.0,1405.0,220.0
13987,1272.0,1405.0,220.0
13988,1871.0,1405.0,220.0
13989,1871.0,1038.0,220.0
13990,1871.0,1038.0,220.0
13991,1871.0,1038.0,220.0
13992,1871.0,1292.0,220.0
13993,1871.0,1292.0,220.0
13994,1871.0,1292.0,220.0
13995,1871.0,1292.0,220.0
13996,1871.0,1439.0,220.0
13997,1871.0,1439.0,220.0
13998,1871.0,1439.0,220.0
13999,1871.0,1439.0,220.0
14000,1377.0,1439.0,220.0
14001,1377.0,1439.0,220.0
14002,1377.0,3156.0,220.0
14003,1377377.0,2854.0,220.0
14004,1377.0,1449.0,220.0
14005,1377.0,1449.0,220.0
14006,1377377.0,1690.0,220.0
14007,1377.0,1690.0,220.0
14008,1377.0,1690.0,256.0
14009,1377.0,1690.0,256.0
14010,1377.0,1690.0,256.0
14011,1377.0,1690.0,688.0
14012,1377.0,1690.0,688.0
14013,1377.0,1690.0,688.0
14014,1377.0,1690.0,688.0
14015,1377.0,1210.0,688.0
14016,1377.0,1932.0,688.0
14017,1377.0,2840.0,688.0
14018,1377.0,2840.0,604.0
14019,1377.0,2840.0,233.0
14020,1377.0,4475.0,233.0
14021,1377.0,4475.0,322.0
14022,1377.0,4475.0,322.0
14023,1377.0,4475.0,322.0
14024,1377.0,4475.0,322.0
14025,1377.0,4475.0,322.0
14026,1377.0,4475.0,322.0
14027,1377.0,4475.0,322.0
14028,1377.0,2134.0,322.0
14029,1377.0,2134.0,322.0
14030,1929.0,2134.0,322.0
14031,1929.0,2134.0,322.0
14032,1929.0,2134.0,322.0
14033,1929.0,2134.0,322.0
14034,1419.0,2134.0,322.0
14035,1419.0,2134.0,322.0
14036,1419.0,2134.0,322.0
14037,1419.0,2134.0,322.0
14038,1419.0,2134.0,322.0
14039,1419.0,2134.0,322.0
14040,1419.0,2134.0,322.0
14041,1419.0,2134.0,322.0
14042,1419.0,2134.0,322.0
14043,1419.0,2134.0,322.0
14044,1419.0,2134.0,322.0
14045,1419.0,2134.0,322.0
14046,1419.0,2134.0,322.0
14047,1419.0,2134.0,322.0
14048,1419.0,2134.0,322.0
14049,1419.0,2134.0,322.0
14050,1419.0,2134.0,322.0
14051,1419.0,2134.0,322.0
14052,1419.0,2134.0,322.0
14053,1419.0,2134.0,322.0
14054,1419.0,2134.0,322.0
14055,1419.0,2134.0,322.0
14056,1419.0,2134.0,322.0
14057,1419.0,2134.0,322.0
14058,883.0,2134.0,322.0
14059,883.0,2134.0,322.0
14060,883.0,2134.0,322.0
14061,883.0,2134.0,322.0
14062,883.0,2134.0,322.0
14063,883.0,2134.0,322.0
14064,883.0,2134.0,322.0
14065,883.0,2134.0,322.0
15678,3776.0,1320.0,2116.0
15679,3776.0,1320.0,2116.0
15680,306.0,1320.0,2116.0
15681,3773776.0,1320.0,2116.0
15682,3776.0,1671.0,2116.0
15683,3776.0,1671.0,2116.0
15684,3776.0,1671.0,2116.0
15685,3776.0,1671.0,2116.0
15686,3776.0,1671.0,2116.0
15687,3776.0,1671.0,2116.0
15688,3776.0,1671.0,1546.0
15689,3776.0,1671.0,1546.0
15690,3776.0,1671.0,1546.0
15691,3776.0,1671.0,1546.0
15692,3776.0,1671.0,1546.0
15693,3776.0,1671.0,1546.0
15694,3776.0,1671.0,1546.0
15695,3776.0,1671.0,1546.0
15696,3776.0,1671.0,1546.0
15697,3776.0,1671.0,1546.0
15698,3776.0,1671.0,1546.0
15699,3776.0,2828.0,1546.0
15700,3776.0,2828.0,1546.0
15701,3776.0,2828.0,1546.0
15702,3776.0,2828.0,1546.0
15703,3776.0,2828.0,2425.0
15704,3776.0,2828.0,2425.0
15705,2007.0,2768.0,2727.0
15706,2007.0,2768.0,2727.0
15707,2007.0,2768.0,2727.0
15708,2007.0,4278.0,2727.0
15709,2007.0,4278.0,2297.0
15710,2007.0,4278.0,2297.0
15711,2007.0,4278.0,2297.0
15712,2007.0,4278.0,2297.0
15713,3743749.0,2601.0,2297.0
15714,3749.0,2601.0,2297.0
15715,3749.0,2601.0,2297.0
15716,3749.0,2601.0,2297.0
15717,3749.0,2601.0,2297.0
15718,3749.0,2601.0,2297.0
15719,3749.0,2601.0,2297.0
15720,3749.0,2601.0,2297.0
15721,3749.0,2601.0,2297.0
15722,1368.0,2601.0,2297.0
15723,1368.0,2601.0,2297.0
15724,1368.0,2601.0,2297.0
15725,1368.0,2601.0,2297.0
15726,1368.0,3337.0,2297.0
15727,1368.0,3337.0,2297.0
15728,1368.0,3337.0,2297.0
15729,1368.0,3337.0,2297.0
15730,1368.0,2485.0,2297.0
15731,368.0,3139.0,2297.0
15732,11777.0,3139.0,2297.0
15733,1777.0,3139.0,2297.0
15734,1777.0,3139.0,2297.0
15735,1777.0,2611.0,2297.0
15736,1777.0,2611.0,2297.0
15737,1777.0,2611.0,2297.0
15738,1777.0,2611.0,2297.0
15739,1777.0,2611.0,2297.0
15740,1777.0,2611.0,2297.0
15741,3717.0,2611.0,2297.0
15742,3717.0,2611.0,2297.0
15743,3717.0,2611.0,2297.0
15744,3717.0,2611.0,2297.0
15745,3717.0,3646.0,2297.0
15746,3717.0,2814.0,2297.0
15747,3717.0,2814.0,2297.0
15748,3717.0,2814.0,2297.0
15749,3717.0,2814.0,2297.0
15750,3717.0,2814.0,2297.0
15751,3717.0,2814.0,2297.0
15752,3717.0,2530.0,2297.0
15753,3717.0,2530.0,2297.0
15754,3717.0,2530.0,2297.0
15755,3717.0,2530.0,2297.0
15756,3717.0,2530.0,2297.0
15757,3717.0,2530.0,2297.0
15758,3717.0,2897.0,2297.0
15759,3717.0,3197.0,2297.0
15760,3717.0,1411.0,2297.0
15761,3717.0,1411.0,2297.0
15762,3717.0,3530.0,2297.0
15763,3717.0,3530.0,2297.0
15764,3717.0,3318.0,2297.0
15765,3717.0,3317.0,2297.0
15766,3717.0,3317.0,2297.0
15767,2385.0,3317.0,2297.0
15768,2385.0,3317.0,2297.0
15769,2385.0,3317.0,2297.0
15770,2385.0,3906.0,2297.0
15771,2385.0,2912.0,2297.0
15772,2385.0,2912.0,2297.0
15773,2107.0,2912.0,2297.0
15774,2107.0,2912.0,2297.0
15775,2107.0,2658.0,2297.0
15776,2107.0,3318.0,2297.0
15777,940.0,2198.0,2297.0
15778,940.0,2198.0,2297.0
15779,940.0,2658.0,2297.0
15780,1338.0,2658.0,2297.0
15781,1305.0,2658.0,2297.0
15782,1305.0,2658.0,2297.0
15783,3639.0,2658.0,2297.0
15784,3639.0,2658.0,2297.0
15785,3639.0,2658.0,2297.0
15786,3639.0,2658.0,2297.0
15787,2378.0,2658.0,2297.0
17362,2441.0,3411.0,204.0
17363,1311.0,3411.0,204.0
17364,1311.0,3411.0,204.0
17365,1311.0,3411.0,204.0
17366,1311.0,3411.0,204.0
17367,1311.0,3411.0,204.0
17368,1311.0,3411.0,204.0
17369,1311.0,3411.0,204.0
17370,1311.0,3411.0,204.0
17371,1311.0,3411.0,204.0
17372,311.0,3411.0,204.0
17373,1311.0,3411.0,204.0
17374,1311.0,3411.0,204.0
17375,1311.0,3411.0,204.0
17376,1311.0,3411.0,204.0
17377,1311.0,3411.0,204.0
17378,1311.0,3411.0,204.0
17379,1311.0,2756.0,204.0
17380,1311.0,1658.0,204.0
17381,111.0,1658.0,204.0
17382,13311.0,1658.0,204.0
17383,1311.0,1950.0,204.0
17384,1311.0,1950.0,204.0
17385,1311.0,1950.0,204.0
17386,1311.0,1950.0,204.0
17387,1311.0,1950.0,204.0
17388,1311.0,1950.0,204.0
17389,1311.0,1950.0,204.0
17390,1311.0,1950.0,204.0
17391,1311.0,1950.0,204.0
17392,1311.0,101311.0,2387.0
17579,2008.0,292008.0,2950.0
17580,2905.0,1914.0,724.0
17581,2905.0,1914.0,724.0
17582,2905.0,1914.0,724.0
17583,2905.0,1914.0,724.0
17584,2905.0,1914.0,724.0
17585,2905.0,1914.0,724.0
17586,2905.0,1914.0,724.0
17587,2905.0,1914.0,724.0
17588,2905.0,1914.0,724.0
17589,2905.0,1914.0,724.0
17590,2905.0,1914.0,724.0
17591,2905.0,1914.0,724.0
17592,2905.0,1914.0,724.0
17593,29.0,1914.0,724.0
17594,2905.0,2660.0,724.0
17595,2905.0,2660.0,724.0
17596,2905.0,2660.0,724.0
17597,2905.0,2660.0,724.0
17598,2905.0,2660.0,724.0
17599,2905.0,2660.0,724.0
17600,2905.0,2660.0,724.0
17601,2905.0,2660.0,724.0
17602,2905.0,2660.0,724.0
17603,5.0,2660.0,724.0
17604,29905.0,2660.0,724.0
17605,2905.0,2660.0,724.0
17606,2905.0,2660.0,724.0
17607,2905.0,2660.0,724.0
17608,2905.0,2660.0,724.0
17609,2905.0,2660.0,724.0
17610,640.0,2660.0,724.0
17611,640.0,2660.0,724.0
17612,640.0,2660.0,724.0
17613,640.0,2660.0,724.0
17614,640.0,2660.0,724.0
17615,640.0,2660.0,724.0
17616,640.0,2660.0,724.0
17617,640.0,2660.0,724.0
17618,640.0,2660.0,724.0
17619,640.0,2660.0,724.0
17620,1955.0,2660.0,724.0
17621,1955.0,2660.0,724.0
17622,1955.0,2660.0,724.0
17623,1955.0,2660.0,724.0
17624,1955.0,2660.0,724.0
17625,1955.0,2660.0,724.0
17626,1955.0,2660.0,724.0
17627,1955.0,2660.0,724.0
17628,1955.0,2660.0,724.0
17629,1955.0,2660.0,724.0
17630,1955.0,2660.0,724.0
17631,1955.0,2660.0,724.0
17632,1442.0,2660.0,724.0
17633,1442.0,2660.0,724.0
17634,1655.0,2660.0,1349.0
17635,1655.0,2660.0,1349.0
17636,1495.0,2660.0,1349.0
17637,1495.0,2660.0,1349.0
17638,1495.0,2660.0,1349.0
17639,1495.0,2660.0,1349.0
17640,1495.0,2660.0,1349.0
17641,1495.0,2660.0,1349.0
17642,1495.0,2660.0,1349.0
17643,1495.0,2660.0,1349.0
17644,1495.0,2660.0,1349.0
17645,1495.0,2660.0,1349.0
17646,1495.0,2660.0,1349.0
17647,1495.0,2660.0,1349.0
17648,1495.0,2660.0,1349.0
17649,1486.0,2660.0,1349.0
17650,1486.0,2660.0,1349.0
17651,2029.0,2660.0,1349.0
17652,2029.0,2660.0,1349.0
17653,2029.0,2660.0,1349.0
17654,2029.0,2660.0,1349.0
17655,2029.0,2660.0,1349.0
17656,2029.0,2660.0,1349.0
17657,2029.0,2660.0,1349.0
17658,2029.0,2660.0,1349.0
17659,2029.0,2660.0,1349.0
17660,2029.0,2660.0,1349.0
17661,2029.0,2660.0,1349.0
17662,2029.0,2660.0,1349.0
17663,2029.0,2660.0,1349.0
17664,2029.0,2660.0,1349.0
17665,2029.0,2660.0,1349.0
17666,2029.0,2660.0,1349.0
17667,2029.0,2660.0,1349.0
17668,2029.0,2660.0,1349.0
17669,2029.0,2660.0,1349.0
17670,2029.0,2660.0,1349.0
17671,2029.0,2660.0,1349.0
18453,1941.0,1957.0,2982.0
18454,1672.0,1957.0,2982.0
18455,1672.0,1957.0,2982.0
18456,1672.0,1957.0,2982.0
18457,1218.0,1957.0,2982.0
18458,1368.0,1957.0,2982.0
18459,973.0,1957.0,2982.0
18460,1131.0,1957.0,2982.0
18461,1131.0,1957.0,2982.0
18462,1807.0,1957.0,2982.0
18463,1807.0,1957.0,2982.0
18464,1807.0,1957.0,2982.0
18465,1807.0,1957.0,2982.0
18466,1807.0,1957.0,2982.0
18467,1807.0,1957.0,2982.0
18468,1189.0,1957.0,2982.0
18469,853.0,1957.0,2982.0
18470,1753.0,1957.0,2982.0
18471,940.0,1957.0,2982.0
18472,940.0,1957.0,2982.0
18473,659.0,1957.0,2982.0
18474,659.0,1957.0,2982.0
18475,1193.0,1957.0,2982.0
18476,1098.0,1957.0,2982.0
18477,1098.0,1957.0,2982.0
18478,659.0,1957.0,2982.0
18479,1352.0,1957.0,2982.0
18480,1352.0,1957.0,2982.0
18481,1352.0,1957.0,2982.0
18482,1300.0,1957.0,2982.0
18483,10.0,1957.0,2982.0
18484,825.0,1957.0,2982.0
18485,825.0,1957.0,2982.0
18486,8.0,1957.0,2982.0
18487,1279.0,1957.0,2982.0
18488,1279.0,2385.0,2982.0
18489,1860.0,1106.0,2982.0
18490,1860.0,1106.0,2982.0
18491,2388.0,1106.0,2982.0
18492,2388.0,1106.0,2982.0
18493,2388.0,1106.0,2982.0
18494,2388.0,1106.0,2982.0
18495,2388.0,1425.0,2982.0
18496,2388.0,1425.0,2982.0
18497,2388.0,1425.0,2982.0
18498,2388.0,1425.0,2982.0
18499,2388.0,1425.0,2982.0
18500,2388.0,1425.0,2982.0
18501,2388.0,1425.0,2982.0
18502,1291.0,1425.0,2982.0
18503,1291.0,1425.0,2982.0
18504,1291.0,1425.0,2982.0
18505,1291.0,1425.0,2982.0
18506,1161.0,1425.0,2982.0
18507,1161.0,1425.0,2982.0
18508,1928.0,1425.0,2982.0
18509,1928.0,1425.0,2982.0
18510,8.0,1425.0,2982.0
18511,1928.0,1425.0,2982.0
18512,1928.0,1425.0,2982.0
18513,1928.0,1425.0,2982.0
18514,745.0,1425.0,2982.0
18515,745.0,1425.0,2982.0
18516,745.0,1425.0,2982.0
18517,745.0,1425.0,2982.0
18518,745.0,1425.0,2982.0
18519,2669.0,1425.0,2982.0
18520,2669.0,1425.0,2982.0
18521,1484.0,1425.0,2982.0
18522,1111.0,1425.0,2982.0
18523,2145.0,1425.0,2982.0
18524,2145.0,1425.0,2982.0
18525,1589.0,1425.0,2982.0
18526,1589.0,1425.0,2982.0
18527,1589.0,1425.0,2982.0
18528,1708.0,1425.0,2982.0
18529,1708.0,1425.0,2982.0
18530,1708.0,1425.0,2982.0
18531,1708.0,1425.0,2982.0
18532,1708.0,1425.0,2982.0
18533,1393.0,1425.0,1574.0
18534,530.0,1425.0,1574.0
18535,508.0,1425.0,1574.0
18536,508.0,1425.0,1574.0
18537,508.0,1425.0,1574.0
18538,508.0,1425.0,1574.0
18539,2173.0,1425.0,1574.0
18540,1302.0,1425.0,1574.0
18541,1302.0,1425.0,1574.0
18542,1202.0,1425.0,1574.0
18543,673.0,1425.0,1574.0
18544,874.0,1425.0,1574.0
18545,874.0,1425.0,1574.0
18546,1970.0,1425.0,1574.0
18547,1970.0,1425.0,1574.0
18548,1970.0,1425.0,1574.0
18549,1970.0,1425.0,1574.0
18550,1970.0,1425.0,1574.0
18551,1550.0,1425.0,1574.0
18552,1550.0,1425.0,1574.0
18553,1550.0,1425.0,1574.0
18554,701.0,1425.0,1574.0
18555,701.0,1425.0,1574.0
18556,701.0,1425.0,1574.0
19755,10.0,2127.0,4514.0
19756,1245.0,2127.0,4514.0
19757,1245.0,2127.0,4514.0
19758,1245.0,2127.0,4514.0
19759,1245.0,2127.0,4514.0
19760,1245.0,2127.0,4514.0
19761,1245.0,2127.0,4514.0
19762,1245.0,2127.0,4514.0
19763,124545.0,2127.0,4514.0
19764,1245.0,2127.0,4514.0
19765,1245.0,2127.0,4514.0
19766,1245.0,2127.0,4514.0
19767,1245.0,2127.0,4514.0
19768,1245.0,2127.0,4514.0
19769,1245.0,2127.0,4514.0
19770,1574.0,2127.0,4514.0
19771,2141.0,2127.0,4514.0
19772,2141.0,2127.0,4514.0
19773,1526.0,2127.0,4514.0
19774,1526.0,2127.0,4514.0
19775,1526.0,2127.0,4514.0
19776,1526.0,2127.0,4514.0
19777,1526.0,2127.0,4514.0
19778,1498.0,2127.0,4514.0
19779,1498.0,2127.0,4514.0
19780,1498.0,2127.0,4514.0
19781,1498.0,2127.0,4514.0
19782,1498.0,2127.0,4514.0
19783,1498.0,2127.0,4514.0
19784,988.0,2127.0,4514.0
19785,988.0,2127.0,4514.0
19786,864.0,2127.0,4514.0
19787,864.0,2127.0,4514.0
19788,864.0,2127.0,4514.0
19789,864.0,2127.0,4514.0
19790,2314.0,2127.0,4514.0
19791,2314.0,2127.0,4514.0
19792,1228.0,2127.0,4514.0
19793,1228.0,2127.0,4514.0
19794,1228.0,2127.0,4514.0
19795,1228.0,2127.0,4514.0
19796,1228.0,2127.0,4514.0
19797,1228.0,2127.0,4514.0
19798,1498.2,2127.0,4514.0
19799,1228.0,2127.0,4514.0
19800,1228.0,2127.0,4514.0
19801,1228.0,2127.0,4514.0
19802,1228.0,2127.0,4514.0
19803,1228.0,2127.0,4514.0
19804,1228.0,2127.0,4514.0
19805,1228.0,2127.0,4514.0
19806,1228.0,2127.0,4514.0
19807,1228.0,2127.0,4514.0
19808,1313.0,2127.0,4514.0
19809,1313.0,2127.0,4514.0
19810,1313.0,2127.0,4514.0
19811,1313.0,2127.0,4514.0
19812,1313.0,2127.0,4514.0
19813,1313.0,2127.0,4514.0
19814,1313.0,2127.0,4514.0
19815,1313.0,2127.0,4514.0
19816,1313.0,2127.0,4514.0
19817,1313.0,2127.0,4514.0
19818,1313.0,2127.0,4514.0
19819,1213.0,2127.0,4514.0
19820,131313.0,2127.0,4514.0
19821,1313.0,2127.0,4514.0
19822,1313.0,2127.0,4514.0
19823,1313.0,2127.0,4514.0
19824,1313.0,2127.0,4514.0
19825,1313.0,2127.0,4514.0
19826,1313.0,2127.0,4514.0
19827,1313.0,2127.0,4514.0
19828,737.0,2127.0,4514.0
19829,737.0,2127.0,4514.0
19830,737.0,2127.0,4514.0
19831,737.0,2127.0,4514.0
19832,737.0,2127.0,4514.0
19833,267.0,2127.0,4514.0
19834,67.0,2127.0,4514.0
19835,1569.0,2127.0,4514.0
19836,1569.0,2127.0,4514.0
19837,1845.0,2127.0,4514.0
19838,1845.0,2127.0,4514.0
19839,1845.0,2127.0,4514.0
19840,1845.0,2127.0,4514.0
19841,1845.0,2127.0,4514.0
19842,1514.0,2127.0,4514.0
19843,1350.0,2127.0,4514.0
20891,1149.0,1594.0,382.0
20892,1149.0,1594.0,382.0
20893,1149.0,1594.0,382.0
20894,686.0,2623.0,382.0
20895,686.0,2623.0,382.0
20896,686.0,2623.0,382.0
20897,686.0,2616.0,382.0
20898,686.0,2616.0,382.0
20899,7.0,2616.0,382.0
20900,48487.0,2616.0,382.0
20901,487.0,2616.0,382.0
20902,487.0,2616.0,382.0
20903,487.0,2616.0,382.0
20904,487.0,2616.0,382.0
20905,487.0,2616.0,382.0
20906,487.0,2616.0,382.0
20907,487.0,2616.0,382.0
20908,487.0,2616.0,382.0
20909,487.0,2616.0,382.0
20910,487.0,2616.0,382.0
20911,487.0,2581.0,382.0
20912,487.0,2581.0,382.0
20913,487.0,2581.0,382.0
20914,487.0,2581.0,382.0
20915,48787.0,2581.0,382.0
20916,1556.0,2581.0,382.0
20917,1556.0,1607.0,382.0
20918,1556.0,1607.0,382.0
20919,1556.0,1607.0,382.0
20920,1556.0,1607.0,382.0
20921,1556.0,1607.0,382.0
20922,1556.0,782.0,575.0
20923,1556.0,782.0,575.0
20924,1556.0,782.0,575.0
20925,1556.0,782.0,575.0
20926,1556.0,782.0,575.0
20927,1086.0,782.0,575.0
20928,1086.0,782.0,575.0
20929,1086.0,782.0,575.0
20930,1086.0,782.0,575.0
20931,1086.0,782.0,575.0
20932,1086.0,782.0,575.0
20933,1086.0,782.0,575.0
20934,1086.0,782.0,575.0
20935,1086.0,782.0,575.0
20936,612.0,782.0,575.0
20937,612.0,782.0,575.0
20938,612.0,782.0,575.0
20939,612.0,782.0,575.0
20940,612.0,1988.0,575.0
20941,612.0,3930.0,575.0
20942,612.0,3930.0,575.0
20943,612.0,2445.0,575.0
20944,612.0,2445.0,575.0
20945,612.0,2445.0,575.0
20946,612.0,1740.0,575.0
20947,612.0,1909.0,575.0
20948,595.0,1802.0,575.0
20949,595.0,1802.0,575.0
20950,595.0,1802.0,575.0
20951,595.0,1802.0,575.0
20952,595.0,1802.0,575.0
20953,595.0,1802.0,575.0
20954,595.0,1802.0,575.0
20955,595.0,1802.0,575.0
20956,595.0,1802.0,575.0
20957,595.0,1802.0,575.0
20958,595.0,2269.0,575.0
20959,595.0,2269.0,575.0
20960,595.0,2269.0,575.0
20961,595.0,2269.0,575.0
20962,595.0,1325.0,575.0
20963,595.0,1325.0,575.0
20964,595.0,1325.0,575.0
20965,595.0,2623.0,575.0
20966,595.0,2623.0,575.0
20967,595.0,2623.0,575.0
20968,595.0,2623.0,575.0
20969,595.0,2623.0,575.0
20970,595.0,1749.0,575.0
20971,595.0,1749.0,575.0
20972,595.0,1749.0,575.0
20973,595.0,1749.0,575.0
20974,595.0,1749.0,575.0
20975,595.0,1749.0,575.0
20976,595.0,1749.0,575.0
20977,595.0,1749.0,575.0
20978,918.0,1749.0,575.0
20979,918.0,1749.0,575.0
20980,918.0,1749.0,575.0
20981,918.0,1749.0,575.0
20982,918.0,1749.0,575.0
20983,918.0,1749.0,575.0
20984,918.0,1749.0,575.0
20985,918.0,1749.0,575.0
20986,918.0,1749.0,575.0
20987,918.0,1659.0,575.0
20988,918.0,1437.0,575.0
20989,918.0,3158.0,575.0
20990,2010.0,3158.0,575.0
20991,2010.0,1812.0,575.0
20992,2010.0,3141.0,575.0
20993,2010.0,3141.0,575.0
20994,2010.0,3141.0,575.0
20995,2010.0,3141.0,575.0
20996,2010.0,1181.0,575.0
20997,2010.0,1181.0,575.0
20998,816.0,1181.0,575.0
20999,816.0,1181.0,575.0
21000,816.0,1181.0,575.0
21001,816.0,1181.0,575.0
21002,816.0,1181.0,575.0
21003,816.0,1181.0,575.0
21004,1848.0,1181.0,575.0
21005,1848.0,1181.0,575.0
21006,1848.0,1181.0,575.0
21007,1848.0,369.0,575.0
21008,1848.0,369.0,575.0
21009,990.0,369.0,575.0
21010,990.0,369.0,575.0
21011,990.0,2195.0,575.0
21012,990.0,2195.0,575.0
21013,990.0,2195.0,575.0
21014,990.0,2195.0,575.0
21015,990.0,2195.0,575.0
21016,990.0,2195.0,575.0
21017,990.0,2195.0,575.0
21018,990.0,2195.0,575.0
21019,990.0,980.0,575.0
21020,990.0,980.0,575.0
21021,990.0,980.0,575.0
21022,990.0,980.0,575.0
21023,990.0,980.0,575.0
21024,990.0,980.0,575.0
21025,1721.0,980.0,575.0
22661,144.0,59.0,225.0
22662,144.0,59.0,298.0
22663,144.0,59.0,298.0
22664,191.0,59.0,298.0
22665,176.0,59.0,298.0
22666,176.0,59.0,200.0
22667,176.0,59.0,214.0
22668,176.0,59.0,214.0
22669,176.0,59.0,214.0
22670,176.0,59.0,214.0
22671,176.0,59.0,233.0
22672,176.0,59.0,233.0
22673,176.0,59.0,237.0
22674,176.0,59.0,320.0
22675,176.0,59.0,266.0
22676,176.0,59.0,266.0
22677,482.0,59.0,266.0
22678,482.0,59.0,266.0
22679,482.0,47.0,266.0
22680,482.0,58.0,266.0
22681,482.0,58.0,375.0
22682,482.0,58.0,375.0
22683,301.0,58.0,375.0
22684,301.0,104.0,375.0
22685,301.0,68.0,375.0
22686,301.0,68.0,375.0
22687,301.0,68.0,375.0
22688,301.0,68.0,342.0
22689,301.0,68.0,342.0
22690,301.0,68.0,500.0
22691,301.0,68.0,500.0
22692,301.0,68.0,500.0
22693,301.0,68.0,500.0
22694,301.0,79.0,500.0
22695,301.0,121.0,500.0
22696,144.0,60.0,500.0
22697,144.0,58.0,500.0
22698,144.0,99.0,500.0
22699,144.0,99.0,500.0
22700,144.0,99.0,500.0
22701,144.0,99.0,149.0
22702,144.0,99.0,149.0
22703,144.0,99.0,149.0
22704,144.0,99.0,149.0
22705,144.0,99.0,149.0
22706,234.0,73.0,149.0
22707,234.0,73.0,149.0
22708,296.0,73.0,149.0
22709,296.0,73.0,149.0
22710,296.0,73.0,149.0
22711,296.0,73.0,337.0
22712,296.0,73.0,337.0
22713,296.0,73.0,337.0
22714,296.0,73.0,337.0
22715,296.0,73.0,331.0
22716,296.0,73.0,331.0
22717,296.0,73.0,195.0
22718,296.0,73.0,195.0
22719,296.0,73.0,132.0
22720,240.0,139.0,132.0
22721,114.0,139.0,132.0
22722,210.0,139.0,132.0
22723,210.0,139.0,392.0
22724,210.0,139.0,255.0
22725,210.0,139.0,255.0
22726,204.0,139.0,255.0
22727,204.0,139.0,167.0
22728,204.0,139.0,167.0
22729,98.0,139.0,167.0
22730,98.0,139.0,167.0
22731,98.0,139.0,167.0
22732,98.0,139.0,167.0
22733,98.0,139.0,263.0
22734,98.0,139.0,263.0
22735,98.0,67.0,263.0
22736,98.0,117.0,263.0
22737,98.0,87.0,263.0
22738,98.0,87.0,263.0
22739,98.0,87.0,263.0
22740,98.0,87.0,331.0
22741,98.0,59.0,331.0
22742,98.0,59.0,331.0
22743,98.0,54.0,331.0
22744,98.0,54.0,331.0
22745,98.0,54.0,331.0
22746,98.0,72.0,331.0
22747,184.0,72.0,331.0
22748,184.0,72.0,226.0
22749,184.0,72.0,230.0
22750,184.0,72.0,206.0
22751,184.0,72.0,206.0
22752,154.0,72.0,114.0
22753,154.0,72.0,162.0
22754,223.0,72.0,162.0
22755,300.0,72.0,162.0
22756,300.0,72.0,162.0
22757,300.0,67.0,162.0
22758,271.0,67.0,162.0
22759,271.0,67.0,163.0
22760,271.0,67.0,163.0
22761,271.0,46.0,163.0
22762,232.0,46.0,163.0
22763,232.0,129.0,163.0
22764,232.0,129.0,163.0
22765,232.0,129.0,163.0
22766,232.0,129.0,163.0
22767,232.0,129.0,163.0
22768,232.0,129.0,163.0
22769,232.0,96.0,163.0
22770,232.0,96.0,163.0
22771,276.0,96.0,163.0
22772,276.0,96.0,419.0
22773,276.0,96.0,419.0
22774,276.0,96.0,419.0
22775,131.0,96.0,419.0
22776,370.0,96.0,419.0
22777,370.0,96.0,419.0
22778,112.0,96.0,419.0
22779,212.0,96.0,419.0
22780,212.0,89.0,419.0
22781,212.0,89.0,419.0
22782,212.0,89.0,419.0
22783,212.0,89.0,419.0
22784,232.0,89.0,419.0
22785,232.0,43.0,419.0
22786,232.0,43.0,419.0
22787,232.0,43.0,419.0
22788,232.0,43.0,419.0
22789,232.0,48.0,419.0
22790,232.0,48.0,154.0
22791,232.0,48.0,154.0
22792,232.0,48.0,154.0
22793,232.0,107.0,235.0
22794,232.0,107.0,235.0
22795,232.0,107.0,235.0
22796,232.0,107.0,235.0
22797,232.0,72.0,198.0
22798,232.0,105.0,198.0
22799,232.0,51.0,198.0
22800,232.0,51.0,198.0
22801,232.0,51.0,83.0
22802,232.0,51.0,83.0
22803,232.0,51.0,237.0
22804,461.0,51.0,237.0
22805,461.0,51.0,237.0
22806,403.0,51.0,237.0
22807,403.0,51.0,237.0
22808,403.0,51.0,237.0
22809,403.0,51.0,225.0
22810,403.0,51.0,472.0
22811,403.0,51.0,472.0
22812,334.0,51.0,144.0
24945,176.0,103.0,417.0
24946,176.0,103.0,417.0
24947,176.0,47.0,340.0
24948,176.0,55.0,340.0
24949,176.0,57.0,115.0
24950,176.0,81.0,115.0
24951,176.0,73.0,115.0
24952,176.0,73.0,115.0
24953,176.0,73.0,115.0
24954,176.0,73.0,115.0
24955,147.0,42.0,115.0
24956,147.0,42.0,115.0
24957,147.0,42.0,115.0
24958,147.0,42.0,115.0
24959,147.0,42.0,115.0
24960,147.0,74.0,299.0
24961,147.0,74.0,351.0
24962,147.0,74.0,351.0
24963,415.0,74.0,351.0
24964,415.0,74.0,351.0
24965,128.0,74.0,70.0
24966,128.0,74.0,70.0
24967,128.0,25.0,70.0
24968,128.0,25.0,70.0
24969,128.0,25.0,498.0
24970,128.0,116.0,498.0
24971,128.0,116.0,498.0
24972,128.0,116.0,202.0
24973,128.0,38.0,202.0
24974,128.0,38.0,202.0
24975,128.0,64.0,202.0
24976,128.0,64.0,199.0
24977,128.0,64.0,200.0
24978,128.0,64.0,153.0
24979,128.0,64.0,153.0
24980,128.0,64.0,116.0
24981,128.0,64.0,116.0
24982,128.0,64.0,116.0
24983,128.0,64.0,164.0
24984,128.0,64.0,164.0
24985,128.0,64.0,164.0
24986,220.0,93.0,164.0
24987,220.0,80.0,164.0
24988,220.0,80.0,164.0
24989,220.0,80.0,310.0
24990,220.0,80.0,310.0
24991,220.0,80.0,310.0
24992,220.0,80.0,310.0
24993,220.0,39.0,310.0
24994,220.0,39.0,274.0
24995,220.0,39.0,202.0
24996,220.0,39.0,202.0
24997,220.0,39.0,147.0
24998,220.0,46.0,387.0
24999,220.0,46.0,387.0
25000,226.0,46.0,387.0
25001,226.0,46.0,387.0
25002,281.0,105.0,387.0
25003,281.0,76.0,387.0
25004,281.0,76.0,387.0
25005,281.0,76.0,387.0
25006,281.0,76.0,283.0
25007,281.0,76.0,283.0
25008,281.0,76.0,247.0
25009,281.0,76.0,247.0
25010,215.0,76.0,269.0
25011,215.0,76.0,269.0
25012,215.0,82.0,269.0
25013,215.0,82.0,269.0
25014,236.0,82.0,269.0
25015,236.0,98.0,269.0
25016,236.0,80.0,269.0
25017,236.0,80.0,191.0
25018,236.0,80.0,191.0
25019,236.0,176.0,191.0
25020,236.0,176.0,191.0
25021,236.0,176.0,191.0
25022,236.0,176.0,191.0
25023,236.0,176.0,191.0
25024,236.0,78.0,191.0
25025,236.0,55.0,191.0
25026,236.0,55.0,191.0
25027,236.0,55.0,191.0
25028,319.0,41.0,191.0
25029,342.0,41.0,258.0
25030,342.0,57.0,258.0
25031,342.0,57.0,258.0
25032,337.0,57.0,258.0
25033,226.0,57.0,258.0
25034,226.0,57.0,258.0
25035,226.0,57.0,258.0
25036,226.0,57.0,168.0
25037,226.0,37.0,168.0
25038,226.0,37.0,168.0
25039,226.0,37.0,99.0
25040,226.0,37.0,99.0
25041,254.0,37.0,162.0
25042,254.0,64.0,162.0
25043,254.0,64.0,162.0
25044,254.0,64.0,162.0
25045,309.0,64.0,162.0
25046,207.0,64.0,162.0
25047,207.0,64.0,247.0
25048,207.0,64.0,247.0
25049,207.0,29.0,247.0
25050,207.0,69.0,247.0
25051,207.0,69.0,247.0
25052,207.0,69.0,175.0
25053,207.0,24.0,331.0
25054,207.0,24.0,331.0
25055,207.0,24.0,331.0
25056,207.0,21.0,271.0
25057,207.0,21.0,174.0
25058,207.0,21.0,108.0
25059,234.0,49.0,108.0
25060,234.0,49.0,108.0
25061,234.0,49.0,108.0
25062,234.0,49.0,103.0
25063,234.0,49.0,103.0
25064,234.0,49.0,103.0
25065,234.0,49.0,103.0
25066,234.0,49.0,150.0
25067,234.0,49.0,204.0
25068,234.0,87.0,204.0
25069,234.0,78.0,204.0
25070,234.0,54.0,204.0
25071,234.0,54.0,204.0
25072,234.0,78.0,204.0
25073,234.0,60.0,204.0
25074,234.0,86.0,252.0
25075,234.0,86.0,252.0
25076,234.0,86.0,341.0
25077,234.0,22.0,341.0
25078,234.0,22.0,341.0
25079,234.0,83.0,341.0
25080,234.0,83.0,341.0
25081,234.0,83.0,341.0
25082,234.0,83.0,341.0
25083,252.0,31.0,341.0
25084,252.0,31.0,341.0
25085,252.0,31.0,341.0
25086,252.0,40.0,341.0
25087,252.0,70.0,341.0
25088,252.0,70.0,341.0
25089,252.0,70.0,341.0
25090,252.0,70.0,341.0
25091,252.0,70.0,341.0
25092,252.0,70.0,341.0
25093,252.0,70.0,341.0
25094,157.0,70.0,341.0
25095,158.0,70.0,341.0
25096,172.0,55.0,341.0
25097,330.0,34.0,341.0
27026,1097.0,2114.0,1524.0
27027,1097.0,2114.0,1524.0
27028,1097.0,2114.0,1524.0
27029,772.0,2114.0,1524.0
27030,2263.0,2114.0,1524.0
27031,2263.0,2114.0,1524.0
27032,2263.0,974.0,1524.0
27033,2263.0,974.0,1524.0
27034,2263.0,974.0,1524.0
27035,1194.0,974.0,1524.0
27036,1194.0,974.0,1524.0
27037,1194.0,974.0,1524.0
27038,1194.0,974.0,1524.0
27039,1194.0,974.0,1524.0
27040,1194.0,974.0,1524.0
27041,1840.0,974.0,1524.0
27042,1840.0,974.0,1524.0
27043,1840.0,974.0,1524.0
27044,1840.0,974.0,1524.0
27045,1840.0,974.0,1524.0
27046,1840.0,974.0,1524.0
27047,1840.0,974.0,1524.0
27048,1149.0,974.0,1524.0
27049,1149.0,974.0,1524.0
27050,1149.0,974.0,1524.0
27051,1149.0,974.0,1524.0
27052,1149.0,974.0,1524.0
27053,1149.0,974.0,1524.0
27054,1149.0,974.0,1524.0
27055,1149.0,974.0,1524.0
27056,1149.0,974.0,1524.0
27057,1149.0,974.0,1524.0
27058,1149.0,974.0,1524.0
27059,1149.0,974.0,1524.0
27060,1149.0,974.0,1524.0
27061,1149.0,974.0,1524.0
27062,1149.0,974.0,1524.0
27063,1149.0,974.0,1524.0
27064,1149.0,974.0,1524.0
27065,970.0,974.0,1524.0
27066,970.0,974.0,1524.0
27067,970.0,974.0,1524.0
27068,970.0,974.0,1524.0
27069,970.0,974.0,1524.0
27070,970.0,974.0,1524.0
27071,970.0,974.0,1524.0
27072,1094.0,974.0,1524.0
27073,1094.0,974.0,1524.0
27074,1094.0,974.0,1524.0
27075,1094.0,974.0,1524.0
27076,1568.0,974.0,1524.0
27077,1568.0,974.0,1524.0
27078,1568.0,974.0,1524.0
27079,1521.0,974.0,1524.0
27080,1521.0,974.0,1524.0
27081,1521.0,974.0,1524.0
27082,1521.0,974.0,1524.0
27083,1521.0,974.0,1524.0
27084,1521.0,974.0,1524.0
27085,1521.0,974.0,1524.0
27086,1521.0,974.0,1524.0
27087,1521.0,974.0,1524.0
27088,1521.0,974.0,1524.0
27089,1521.0,974.0,1524.0
27090,1521.0,974.0,1524.0
27091,1521.0,974.0,1524.0
27092,1521.0,974.0,1524.0
27093,1521.0,974.0,1524.0
27094,1521.0,974.0,1524.0
27095,1521.0,974.0,1524.0
27096,1521.0,974.0,1524.0
27097,1521.0,974.0,1524.0
27098,1521.0,974.0,1524.0
27099,1587.0,974.0,1524.0
27100,1587.0,974.0,1524.0
27101,2033.0,974.0,1524.0
27102,2033.0,974.0,1524.0
27103,2033.0,974.0,1524.0
27104,1992.0,974.0,1524.0
27105,1992.0,974.0,1524.0
27106,1992.0,974.0,1524.0
27107,2098.0,974.0,1524.0
27108,2208.0,974.0,1524.0
27109,1523.0,974.0,1524.0
27110,1133.0,974.0,1524.0
27111,2306.0,974.0,1524.0
27112,1153.0,974.0,1524.0
27113,1153.0,974.0,1524.0
27114,1153.0,974.0,1524.0
27115,1153.0,974.0,1524.0
27116,1153.0,974.0,1524.0
27117,1153.0,974.0,1524.0
27118,1421.0,974.0,1524.0
27119,1721.0,974.0,1524.0
27120,1721.0,974.0,1524.0
27121,1721.0,974.0,1524.0
27122,1529.0,974.0,1524.0
27123,1529.0,974.0,1524.0
27124,1529.0,974.0,1524.0
27125,1529.0,974.0,1524.0
27126,1529.0,974.0,1524.0
27127,1529.0,974.0,1524.0
27128,1529.0,974.0,1524.0
27129,1529.0,974.0,1524.0
27130,1529.0,974.0,1524.0
27131,1529.0,974.0,1524.0
27132,1529.0,974.0,1524.0
27133,840.0,974.0,1524.0
27134,840.0,974.0,1524.0
27135,840.0,974.0,1524.0
27136,1087.0,974.0,1524.0
27137,1825.0,974.0,1524.0
27138,1825.0,974.0,1524.0
27139,1825.0,974.0,1524.0
27140,1860.0,974.0,1524.0
27141,1860.0,974.0,1524.0
27142,1764.0,974.0,1524.0
27143,1764.0,974.0,1524.0
27144,1764.0,974.0,1524.0
27145,1764.0,974.0,1524.0
27146,1764.0,974.0,1524.0
27147,1764.0,974.0,1524.0
27148,1764.0,974.0,1524.0
27149,1764.0,974.0,1524.0
27150,1764.0,974.0,1524.0
27151,1764.0,974.0,1524.0
27152,1764.0,974.0,1524.0
27153,1764.0,974.0,1524.0
27154,1764.0,974.0,1524.0
27155,1764.0,974.0,1524.0
27156,1764.0,974.0,1524.0
27157,1148.0,974.0,1524.0
27158,2129.0,974.0,1524.0
27159,2129.0,974.0,1524.0
27160,2129.0,974.0,1524.0
27161,1553.0,974.0,1524.0
27162,1553.0,974.0,1524.0
27163,1553.0,974.0,1524.0
27164,1553.0,974.0,1524.0
27165,1553.0,974.0,1524.0
27166,1832.0,974.0,1524.0
27167,1832.0,974.0,1524.0
27168,1079.0,974.0,1524.0
27169,2805.0,974.0,1524.0
27170,1229.0,974.0,1524.0
27171,1229.0,544.0,1524.0
27172,1210.0,544.0,1524.0
27173,1210.0,544.0,1524.0
27174,1213.0,544.0,1524.0
27175,1213.0,544.0,1524.0
27176,2236.0,544.0,1524.0
27177,2236.0,544.0,1524.0
27178,543.0,544.0,1524.0
27179,2227.0,544.0,1524.0
28117,1813.0,2132.0,871.0
28118,1813.0,2132.0,871.0
28119,1813.0,2132.0,818.0
28120,1813.0,2132.0,818.0
28121,1813.0,2132.0,818.0
28122,1813.0,2132.0,818.0
28123,1813.0,2132.0,1068.0
28124,1813.0,2132.0,1068.0
28125,1813.0,1680.0,1068.0
28126,1813.0,1680.0,1068.0
28127,1813.0,1680.0,1068.0
28128,1813.0,1680.0,1068.0
28129,1813.0,1680.0,1068.0
28130,1813.0,1680.0,1068.0
28131,1813.0,1680.0,1068.0
28132,1813.0,1680.0,1068.0
28133,1690.0,1680.0,1068.0
28134,1690.0,1680.0,1068.0
28135,1690.0,1680.0,1068.0
28136,1690.0,1680.0,1068.0
28137,1690.0,1432.0,1068.0
28138,1926.0,1432.0,1068.0
28139,1926.0,1432.0,1068.0
28140,1926.0,1432.0,928.0
28141,1926.0,1432.0,928.0
28142,1926.0,1432.0,928.0
28143,1926.0,1432.0,928.0
28144,1926.0,1432.0,928.0
28145,1926.0,1432.0,928.0
28146,1926.0,1432.0,1295.0
28147,1926.0,1432.0,1295.0
28148,1926.0,1432.0,1295.0
28149,1926.0,1432.0,1295.0
28150,1926.0,1432.0,1012.0
28151,1926.0,1432.0,1012.0
28152,1926.0,1432.0,1012.0
28153,1926.0,1846.0,1012.0
28154,1926.0,1846.0,905.0
28155,1926.0,1846.0,905.0
28156,1926.0,1846.0,905.0
28157,1926.0,1846.0,905.0
28158,1926.0,1846.0,905.0
28159,1926.0,1846.0,905.0
28160,1926.0,1846.0,905.0
28161,1926.0,1846.0,905.0
28162,1926.0,1846.0,901.0
28163,1926.0,1846.0,901.0
28164,1057.0,1846.0,407.0
28165,1057.0,1846.0,407.0
28166,1160.0,1846.0,407.0
28167,1160.0,1846.0,407.0
28168,1160.0,1846.0,407.0
28169,1160.0,1846.0,407.0
28170,1160.0,1846.0,407.0
28171,1248.0,1846.0,489.0
28172,1248.0,1846.0,489.0
28173,1248.0,1846.0,489.0
28174,1248.0,1846.0,489.0
28175,1248.0,1846.0,489.0
28176,1248.0,1846.0,489.0
28177,1248.0,1846.0,489.0
28178,1248.0,1846.0,489.0
28179,1248.0,2983.0,489.0
28180,1248.0,1531.0,489.0
28181,1248.0,1531.0,489.0
28182,1248.0,1531.0,489.0
28183,1248.0,1531.0,489.0
28184,1248.0,1531.0,489.0
28185,1248.0,1531.0,489.0
28186,1248.0,1531.0,489.0
28187,1248.0,1531.0,489.0
28188,751.0,1531.0,489.0
28189,751.0,1531.0,489.0
28190,751.0,1531.0,907.0
28191,751.0,1531.0,907.0
28192,751.0,1531.0,907.0
28193,751.0,1531.0,907.0
28194,2776.0,1531.0,907.0
28195,2776.0,1531.0,976.0
28196,2776.0,1531.0,976.0
28197,2776.0,1531.0,891.0
28198,2776.0,1531.0,891.0
28199,2776.0,1531.0,1704.0
28200,1471.0,1531.0,1704.0
28201,1471.0,1531.0,1704.0
28202,1471.0,1531.0,1704.0
28203,1471.0,1531.0,1704.0
28204,841.0,1531.0,1704.0
28205,841.0,1531.0,1704.0
28206,841.0,1531.0,1704.0
28207,841.0,1531.0,1704.0
28208,841.0,1531.0,1704.0
28209,841.0,1531.0,1704.0
28210,841.0,1531.0,1704.0
28211,841.0,1531.0,1704.0
28212,841.0,1531.0,1704.0
28213,841.0,1531.0,1704.0
28214,995.0,1531.0,1704.0
28215,416.0,1531.0,1704.0
28216,416.0,1531.0,1704.0
28217,1158.0,1531.0,1704.0
28218,1158.0,1531.0,1704.0
28219,2034.0,1531.0,1704.0
28220,2034.0,1531.0,1704.0
29288,183.0,538.0,1123.0
29289,183.0,538.0,1123.0
29290,240.0,538.0,636.0
29291,240.0,538.0,758.0
29292,240.0,538.0,758.0
29293,240.0,538.0,758.0
29294,240.0,538.0,758.0
29295,245.0,538.0,758.0
29296,245.0,981.0,758.0
29297,245.0,912.0,758.0
29298,194.0,912.0,758.0
29299,194.0,912.0,758.0
29300,194.0,912.0,1240.0
29301,194.0,912.0,428.0
29302,321.0,912.0,428.0
29303,321.0,915.0,428.0
29304,321.0,915.0,960.0
29305,321.0,915.0,960.0
29306,321.0,915.0,960.0
29307,158.0,915.0,960.0
29308,158.0,915.0,960.0
29309,158.0,915.0,960.0
29310,158.0,915.0,960.0
29311,158.0,915.0,960.0
29312,158.0,915.0,960.0
29313,158.0,1102.0,960.0
29314,158.0,1199.0,960.0
29315,158.0,570.0,960.0
29316,158.0,1299.0,960.0
29317,158.0,1299.0,960.0
29318,158.0,1299.0,960.0
29319,402.0,1299.0,960.0
29320,83.0,471.0,960.0
29321,83.0,471.0,960.0
29322,83.0,471.0,960.0
29323,83.0,471.0,1432.0
29324,83.0,1030.0,1432.0
29325,83.0,1030.0,1407.0
29326,83.0,1214.0,1407.0
29327,83.0,1214.0,916.0
29328,83.0,1214.0,916.0
29329,83.0,1214.0,916.0
29330,83.0,1214.0,916.0
29331,83.0,1340.0,916.0
29332,83.0,953.0,916.0
29333,83.0,1062.0,916.0
29334,83.0,1062.0,916.0
29335,83.0,1062.0,916.0
29336,83.0,1062.0,916.0
29337,83.0,1987.0,916.0
29338,83.0,1987.0,916.0
29339,83.0,1987.0,916.0
29340,83.0,1615.0,916.0
29341,83.0,1615.0,916.0
29342,83.0,1615.0,916.0
29343,83.0,1615.0,916.0
29344,83.0,1615.0,916.0
29345,83.0,1615.0,916.0
29346,83.0,1615.0,916.0
29347,83.0,1615.0,916.0
29348,83.0,1357.0,916.0
29349,83.0,2180.0,916.0
29350,83.0,2180.0,916.0
29351,83.0,643.0,916.0
29352,83.0,643.0,916.0
29353,83.0,852.0,916.0
29354,83.0,852.0,916.0
29355,83.0,852.0,916.0
29356,83.0,852.0,916.0
29357,83.0,899.0,916.0
29358,425.0,899.0,916.0
29359,425.0,899.0,916.0
29360,425.0,899.0,916.0
29361,425.0,899.0,916.0
29362,425.0,934.0,916.0
29363,425.0,934.0,916.0
29364,425.0,1085.0,916.0
29365,425.0,1085.0,916.0
29366,425.0,1085.0,916.0
29367,425.0,711.0,916.0
29368,425.0,711.0,916.0
29369,425.0,711.0,916.0
29370,425.0,711.0,916.0
29371,425.0,711.0,916.0
29372,425.0,711.0,916.0
29373,425.0,549.0,916.0
29374,425.0,549.0,916.0
29375,425.0,549.0,916.0
29376,425.0,955.0,916.0
29377,425.0,955.0,916.0
29378,231.0,955.0,916.0
29379,221.0,955.0,916.0
29380,221.0,955.0,916.0
29381,221.0,955.0,916.0
29382,221.0,955.0,916.0
29383,72.0,955.0,916.0
29384,72.0,955.0,916.0
29385,72.0,955.0,916.0
29386,72.0,955.0,1547.0
29387,72.0,774.0,1547.0
29388,72.0,774.0,1547.0
29389,72.0,870.0,1547.0
29390,72.0,501.0,1547.0
29391,72.0,501.0,1547.0
29392,72.0,501.0,1547.0
29393,72.0,501.0,1547.0
29394,72.0,501.0,1547.0
29395,72.0,501.0,1547.0
29396,72.0,501.0,1547.0
29397,72.0,501.0,1965.0
29398,72.0,501.0,1965.0
29399,72.0,501.0,1965.0
29400,72.0,501.0,1965.0
29401,568.0,501.0,1965.0
29402,568.0,683.0,1965.0
29403,568.0,683.0,1965.0
29404,568.0,683.0,1965.0
29405,568.0,683.0,1965.0
29406,272.0,683.0,1965.0
29407,272.0,683.0,1965.0
29408,272.0,683.0,1965.0
29409,272.0,683.0,1965.0
29410,272.0,683.0,1965.0
29411,272.0,999.0,1965.0
29412,272.0,999.0,985.0
29413,272.0,999.0,985.0
29414,272.0,999.0,985.0
29415,272.0,999.0,985.0
29416,272.0,999.0,985.0
29417,272.0,1708.0,985.0
29418,272.0,1231.0,985.0
29419,272.0,1231.0,985.0
29420,327.0,1231.0,985.0
29421,327.0,1231.0,985.0
29422,327.0,1231.0,985.0
29423,392.0,1231.0,985.0
29424,420.0,1231.0,985.0
29425,420.0,1231.0,985.0
29426,420.0,1231.0,985.0
29427,420.0,1231.0,985.0
29428,420.0,1231.0,985.0
29429,420.0,1231.0,985.0
29430,420.0,1231.0,985.0
29431,420.0,1231.0,985.0
29432,420.0,1231.0,985.0
29433,376.0,1231.0,985.0
29434,376.0,1231.0,985.0
29435,225.0,1231.0,985.0
29436,195.0,1231.0,985.0
29437,195.0,1231.0,985.0
29438,195.0,1231.0,985.0
29439,195.0,1231.0,985.0
29440,195.0,1231.0,985.0
32192,348.0,263.0,238.0
32193,596.0,263.0,238.0
32194,596.0,263.0,377.0
32195,596.0,263.0,377.0
32196,596.0,263.0,377.0
32197,596.0,263.0,377.0
32198,596.0,263.0,377.0
32199,596.0,263.0,377.0
32200,690.0,263.0,377.0
32201,690.0,263.0,377.0
32202,60.0,263.0,377.0
32203,263.0,263.0,377.0
32204,263.0,263.0,377.0
32205,263.0,263.0,377.0
32206,263.0,263.0,377.0
32207,263.0,263.0,377.0
32208,263.0,263.0,377.0
32209,263.0,263.0,377.0
32210,263.0,263.0,377.0
32211,263.0,263.0,377.0
32212,263.0,263.0,377.0
32213,23.0,263.0,377.0
32214,26263.0,263.0,377.0
32215,263.0,263.0,377.0
32216,263.0,263.0,377.0
32217,263.0,263.0,377.0
32218,263.0,263.0,377.0
32219,263.0,263.0,377.0
32220,263.0,263.0,377.0
32221,263.0,263.0,377.0
32222,263.0,242.0,377.0
32223,263.0,242.0,377.0
32224,263.0,242.0,377.0
32225,263.0,242.0,377.0
32226,263.0,242.0,377.0
32227,263.0,242.0,377.0
32228,263.0,242.0,377.0
32229,263.0,242.0,377.0
32230,263.0,242.0,377.0
32231,263.0,242.0,377.0
32232,263.0,242.0,377.0
32233,263.0,242.0,377.0
32234,263.0,242.0,377.0
32235,263.0,242.0,377.0
32236,263.0,242.0,377.0
32237,263.0,242.0,377.0
32238,263.0,246.0,377.0
32239,638.0,246.0,377.0
32240,638.0,246.0,377.0
32241,638.0,172.0,377.0
32242,638.0,361.0,377.0
32243,638.0,115.0,377.0
32244,638.0,115.0,377.0
32245,638.0,206.0,377.0
32246,638.0,212.0,377.0
32247,638.0,212.0,377.0
32248,638.0,241.0,377.0
32249,638.0,241.0,377.0
32250,638.0,241.0,377.0
32251,638.0,241.0,377.0
32252,638.0,241.0,377.0
32253,638.0,272.0,377.0
32254,638.0,272.0,377.0
32255,638.0,146.0,377.0
32256,638.0,146.0,377.0
32257,638.0,146.0,377.0
32258,638.0,146.0,377.0
32259,638.0,311.0,377.0
32260,638.0,311.0,377.0
32261,638.0,311.0,377.0
32262,638.0,311.0,377.0
32263,638.0,311.0,377.0
32264,638.0,311.0,377.0
32265,638.0,207.0,377.0
32266,38.0,207.0,377.0
32267,860.0,207.0,377.0
32268,860.0,207.0,377.0
32269,860.0,207.0,377.0
32270,860.0,207.0,377.0
32271,860.0,207.0,377.0
32272,860.0,207.0,377.0
32273,860.0,207.0,377.0
32274,860.0,207.0,377.0
32275,860.0,207.0,377.0
32276,860.0,207.0,377.0
32277,860.0,207.0,377.0
32278,2600.0,207.0,377.0
32279,860.0,207.0,377.0
32280,860.0,198.0,377.0
32281,860.0,198.0,377.0
32282,860.0,198.0,377.0
32283,860.0,198.0,377.0
32284,860.0,294.0,377.0
32285,860.0,294.0,377.0
32286,860.0,294.0,377.0
32287,860.0,294.0,377.0
32288,860.0,294.0,377.0
32289,860.0,294.0,377.0
32290,860.0,294.0,377.0
32291,860.0,294.0,377.0
32292,860.0,294.0,377.0
32293,860.0,294.0,377.0
32294,860.0,294.0,377.0
32295,860.0,294.0,377.0
32296,860.0,294.0,377.0
32297,860.0,97.0,377.0
32298,860.0,354.0,377.0
32299,860.0,354.0,377.0
32300,860.0,354.0,377.0
32301,860.0,354.0,377.0
32302,860.0,354.0,377.0
32303,8660.0,354.0,377.0
32304,8860.0,232.0,377.0
32305,860.0,232.0,377.0
32306,860.0,232.0,377.0
32307,860.0,211.0,377.0
32308,860.0,211.0,377.0
32309,860.0,211.0,377.0
32310,860.0,211.0,377.0
32311,860.0,211.0,377.0
32312,860.0,211.0,377.0
32313,860.0,211.0,377.0
32314,860.0,211.0,377.0
32315,860.0,250.0,340.0
32316,860.0,254.0,340.0
32317,860.0,264.0,340.0
32318,860.0,264.0,340.0
32319,860.0,220.0,340.0
32320,860.0,157.0,340.0
32321,860.0,209.0,340.0
32322,860.0,127.0,340.0
32323,860.0,127.0,340.0
32324,860.0,220.0,340.0
32325,860.0,220.0,340.0
32326,860.0,220.0,340.0
32327,860.0,220.0,340.0
32328,860.0,220.0,340.0
32329,860.0,220.0,340.0
32330,860.0,220.0,340.0
32331,860.0,220.0,340.0
32332,860.0,148.0,340.0
32333,860.0,148.0,340.0
32334,860.0,139.0,340.0
32335,860.0,139.0,340.0
33883,20.0,329.0,629.0
33884,607.0,329.0,629.0
33885,607.0,329.0,629.0
33886,607.0,329.0,629.0
33887,607.0,371.0,629.0
33888,607.0,329.0,629.0
33889,607.0,75.0,629.0
33890,607.0,75.0,629.0
33891,607.0,75.0,141.0
33892,607.0,75.0,141.0
33893,607.0,75.0,141.0
33894,7.0,75.0,141.0
33895,6607.0,75.0,141.0
33896,6607.0,75.0,141.0
33897,607.0,75.0,251.0
33898,607.0,75.0,251.0
33899,607.0,75.0,251.0
33900,607.0,75.0,251.0
33901,320.0,75.0,251.0
33902,320.0,75.0,251.0
33903,320.0,75.0,251.0
33904,320.0,75.0,251.0
33905,320.0,75.0,251.0
33906,320.0,75.0,251.0
33907,320.0,75.0,189.0
33908,320.0,75.0,189.0
33909,320.0,75.0,218.0
33910,320.0,75.0,218.0
33911,320.0,75.0,218.0
33912,320.0,75.0,218.0
33913,320.0,75.0,156.0
33914,320.0,75.0,156.0
33915,320.0,75.0,156.0
33916,320.0,75.0,156.0
33917,320.0,75.0,161.0
33918,320.0,75.0,161.0
33919,320.0,75.0,161.0
33920,320.0,75.0,161.0
33921,320.0,75.0,161.0
33922,320.0,75.0,161.0
33923,320.0,75.0,161.0
33924,320.0,75.0,161.0
33925,320.0,75.0,161.0
33926,320.0,75.0,161.0
33927,320.0,75.0,161.0
33928,320.0,75.0,161.0
33929,320.0,75.0,161.0
33930,320.0,75.0,161.0
33931,320.0,324.0,161.0
33932,320.0,324.0,161.0
33933,320.0,324.0,161.0
33934,320.0,324.0,161.0
33935,320.0,433.0,161.0
33936,320.0,433.0,161.0
33937,320.0,433.0,161.0
33938,320.0,143.0,161.0
33939,320.0,143.0,161.0
33940,320.0,328.0,161.0
33941,320.0,208.0,161.0
33942,3200.0,208.0,161.0
33943,320.0,208.0,242.0
33944,320.0,208.0,242.0
33945,320.0,208.0,122.0
33946,320.0,208.0,122.0
33947,320.0,307.0,122.0
33948,320.0,307.0,122.0
33949,320.0,307.0,122.0
33950,320.0,307.0,122.0
33951,320.0,307.0,122.0
33952,320.0,483.0,122.0
33953,320.0,483.0,122.0
33954,320.0,483.0,122.0
33955,299.0,483.0,122.0
33956,299.0,483.0,164.0
33957,299.0,318.0,164.0
33958,299.0,318.0,164.0
33959,299.0,318.0,164.0
33960,299.0,318.0,157.0
33961,299.0,318.0,143.0
33962,299.0,318.0,143.0
33963,299.0,318.0,173.0
33964,299.0,318.0,173.0
33965,299.0,318.0,77.0
33966,299.0,318.0,77.0
33967,299.0,318.0,77.0
33968,299.0,318.0,77.0
33969,99.0,318.0,163.0
33970,299.0,318.0,163.0
33971,299.0,318.0,163.0
33972,299.0,318.0,163.0
33973,299.0,318.0,163.0
33974,299.0,232.0,163.0
33975,299.0,232.0,163.0
33976,299.0,232.0,216.0
33977,299.0,232.0,216.0
33978,299.0,232.0,216.0
33979,299.0,232.0,216.0
33980,299.0,232.0,216.0
33981,299.0,232.0,216.0
33982,299.0,232.0,197.0
33983,299.0,232.0,197.0
33984,299.0,232.0,197.0
33985,299.0,232.0,197.0
33986,299.0,232.0,197.0
33987,299.0,232.0,197.0
33988,299.0,232.0,155.0
33989,299.0,232.0,155.0
33990,299.0,232.0,155.0
33991,299.0,232.0,155.0
33992,299.0,232.0,155.0
33993,299.0,232.0,155.0
33994,299.0,232.0,123.0
33995,299.0,232.0,123.0
33996,299.0,232.0,123.0
33997,299.0,232.0,123.0
33998,299.0,232.0,123.0
33999,299.0,232.0,123.0
34000,299.0,232.0,123.0
34001,299.0,232.0,123.0
34002,299.0,232.0,123.0
34003,299.0,232.0,123.0
34004,299.0,232.0,123.0
34005,299.0,232.0,123.0
34006,299.0,232.0,123.0
34007,299.0,232.0,123.0
34008,299.0,232.0,123.0
34009,299.0,232.0,123.0
34010,299.0,232.0,123.0
34011,299.0,232.0,238.0
34012,299.0,232.0,238.0
34013,299.0,232.0,238.0
34014,299.0,232.0,238.0
34015,299.0,232.0,238.0
34016,299.0,232.0,238.0
34017,299.0,232.0,238.0
34018,299.0,232.0,238.0
34019,299.0,232.0,238.0
34020,299.0,232.0,238.0
34021,299.0,232.0,238.0
35687,1298.0,1865.0,589.0
35688,1298.0,1865.0,589.0
35689,1298.0,1865.0,589.0
35690,1298.0,1865.0,589.0
35691,1298.0,1865.0,589.0
35692,438.0,1865.0,589.0
35693,438.0,1865.0,589.0
35694,527.0,1865.0,589.0
35695,527.0,1865.0,589.0
35696,527.0,1865.0,589.0
35697,557.0,1865.0,589.0
35698,557.0,1865.0,589.0
35699,1312.0,1865.0,589.0
35700,1312.0,1865.0,589.0
35701,1312.0,1865.0,589.0
35702,558.0,1865.0,589.0
35703,903.0,1865.0,589.0
35704,841.0,1865.0,589.0
35705,578.0,1865.0,589.0
35706,399.0,1865.0,589.0
35707,399.0,1865.0,589.0
35708,399.0,1865.0,589.0
35709,866.0,1865.0,589.0
35710,866.0,1865.0,589.0
35711,866.0,1865.0,589.0
35712,866.0,1865.0,589.0
35713,765.0,1865.0,589.0
35714,765.0,1865.0,589.0
35715,570.0,1865.0,589.0
35716,735.0,1865.0,589.0
35717,735.0,1865.0,589.0
35718,735.0,1865.0,589.0
35719,735.0,1865.0,589.0
35720,765.0,1904.0,589.0
35721,765.0,1904.0,589.0
35722,765.0,1904.0,1161.0
35723,765.0,1904.0,1161.0
35724,765.0,1825.0,1161.0
35725,765.0,1825.0,1161.0
35726,765.0,1825.0,1161.0
35727,1266.0,1825.0,1161.0
35728,1266.0,1168.0,1161.0
35729,1266.0,1168.0,1504.0
35730,1266.0,1297.0,1504.0
35731,1266.0,1647.0,1504.0
35732,1266.0,1647.0,2973.0
35733,290.0,1647.0,2973.0
35734,290.0,1647.0,2973.0
35735,290.0,1647.0,2973.0
35736,290.0,1647.0,2973.0
35737,290.0,1647.0,2973.0
35738,290.0,1647.0,2973.0
35739,290.0,1647.0,2973.0
35740,290.0,1647.0,2973.0
35741,290.0,1647.0,2973.0
35742,290.0,1647.0,2973.0
35743,290.0,1647.0,2973.0
35744,290.0,1647.0,2973.0
35745,290.0,1647.0,2973.0
35746,290.0,1647.0,2973.0
35747,290.0,1647.0,2973.0
35748,290.0,1647.0,2973.0
35749,290.0,1464.0,2245.0
35750,290.0,1464.0,2245.0
35751,290.0,1464.0,2245.0
35752,290.0,1464.0,2245.0
35753,290.0,1599.0,2245.0
35754,290.0,1599.0,2245.0
35755,290.0,1299.0,2245.0
35756,290.0,1299.0,2245.0
35757,290.0,1299.0,2245.0
35758,290.0,1299.0,2245.0
35759,290.0,1102.0,2245.0
35760,290.0,1102.0,2245.0
35761,290.0,1075.0,2245.0
35762,290.0,1075.0,2245.0
35763,290.0,1075.0,2245.0
35764,290.0,1075.0,2245.0
35765,290.0,1075.0,2245.0
35766,290.0,1075.0,2245.0
35767,290.0,1075.0,2245.0
35768,290.0,1075.0,2245.0
35769,290.0,1075.0,2245.0
35770,290.0,1075.0,2245.0
35771,772.0,1075.0,2245.0
35772,772.0,1313.0,2245.0
35773,772.0,1313.0,2245.0
35774,772.0,1313.0,2245.0
35775,772.0,1313.0,2245.0
35776,772.0,1313.0,2245.0
35777,772.0,1313.0,2245.0
35778,772.0,1313.0,2245.0
35779,772.0,1687.0,2245.0
35780,772.0,1489.0,2245.0
35781,772.0,1489.0,2245.0
35782,786.0,1489.0,2245.0
35783,786.0,1489.0,2245.0
35784,786.0,1489.0,2245.0
35785,786.0,1489.0,2245.0
35786,786.0,1489.0,2245.0
35787,786.0,1489.0,2245.0
35788,786.0,1274.0,2245.0
35789,786.0,1274.0,2245.0
35790,786.0,1274.0,2245.0
35791,670.0,1274.0,2245.0
35792,670.0,1274.0,2245.0
35793,701.0,1274.0,2245.0
35794,701.0,1274.0,2245.0
35795,357.0,2272.0,2245.0
35796,309.0,2272.0,2245.0
35797,309.0,2272.0,2245.0
35798,309.0,2272.0,2245.0
35799,854.0,2272.0,2245.0
35800,854.0,2272.0,2045.0
35801,480.0,2272.0,2045.0
35802,480.0,2272.0,2045.0
35803,848.0,2272.0,2045.0
35804,793.0,2272.0,2045.0
35805,793.0,2272.0,2045.0
35806,793.0,1482.0,2045.0
35807,793.0,1482.0,2045.0
35808,793.0,1567.0,2045.0
35809,793.0,1567.0,2045.0
35810,558.0,1567.0,2045.0
35811,558.0,1567.0,2045.0
35812,689.0,1567.0,2045.0
35813,689.0,1567.0,2045.0
35814,689.0,1567.0,2045.0
35815,689.0,1567.0,2045.0
35816,689.0,1567.0,2045.0
35817,689.0,958.0,2045.0
35818,689.0,958.0,2045.0
37599,1030.0,1632.0,1735.0
37600,1030.0,1632.0,1735.0
37601,1030.0,1227.0,1735.0
37602,1030.0,1227.0,1735.0
37603,591.0,1227.0,1735.0
37604,591.0,1227.0,1735.0
37605,591.0,1227.0,1735.0
37606,591.0,1227.0,1735.0
37607,317.0,1227.0,1735.0
37608,317.0,1227.0,1735.0
37609,317.0,1227.0,1735.0
37610,317.0,1227.0,1735.0
37611,317.0,1227.0,1735.0
37612,317.0,1227.0,1735.0
37613,317.0,1227.0,1735.0
37614,317.0,1227.0,1735.0
37615,317.0,1227.0,1735.0
37616,317.0,1227.0,1735.0
37617,317.0,1227.0,1735.0
37618,317.0,1227.0,1735.0
37619,317.0,1227.0,1735.0
37620,317.0,1227.0,1735.0
37621,317.0,1227.0,1735.0
37622,317.0,1227.0,1735.0
37623,317.0,1227.0,1735.0
37624,317.0,1227.0,1735.0
37625,770.0,1227.0,1735.0
37626,3170.0,1227.0,1735.0
37627,482.0,1227.0,1735.0
37628,482.0,939.0,1735.0
37629,799.0,939.0,3819.0
37630,520.0,939.0,3819.0
37631,520.0,939.0,3819.0
37632,520.0,939.0,3819.0
37633,687.0,939.0,3819.0
37634,687.0,939.0,3819.0
37635,687.0,939.0,3819.0
37636,687.0,939.0,3819.0
37637,647.0,939.0,3819.0
37638,647.0,939.0,3819.0
37639,755.0,939.0,3819.0
37640,755.0,939.0,3819.0
37641,755.0,939.0,3819.0
37642,755.0,939.0,3819.0
37643,755.0,939.0,3819.0
37644,755.0,939.0,3819.0
37645,755.0,939.0,3819.0
37646,755.0,939.0,3819.0
37647,555.0,939.0,3819.0
37648,690.0,939.0,3819.0
37649,657.0,939.0,3819.0
37650,657.0,939.0,3819.0
37651,657.0,939.0,3819.0
37652,636.0,939.0,3819.0
37653,636.0,939.0,3819.0
37654,755.0,939.0,3819.0
37655,755.0,939.0,3819.0
37656,755.0,939.0,2425.0
37657,755.0,939.0,2551.0
37658,755.0,939.0,2551.0
37659,755.0,939.0,2551.0
37660,755.0,939.0,2551.0
37661,755.0,939.0,2551.0
37662,755.0,939.0,2551.0
37663,755.0,939.0,2551.0
37664,755.0,939.0,2551.0
37665,980.0,939.0,2551.0
37666,980.0,939.0,2551.0
37667,393.0,939.0,2551.0
37668,393.0,939.0,2551.0
37669,393.0,939.0,2551.0
37670,393.0,939.0,2551.0
37671,393.0,939.0,2551.0
37672,393.0,939.0,2551.0
37673,393.0,939.0,2551.0
37674,393.0,939.0,2551.0
37675,493.0,939.0,2551.0
37676,872.0,939.0,2551.0
37677,872.0,939.0,2551.0
37678,872.0,939.0,2551.0
37679,872.0,939.0,2703.0
37680,872.0,939.0,2703.0
37681,872.0,939.0,1545.0
37682,872.0,939.0,1545.0
37683,872.0,939.0,1132.0
37684,872.0,939.0,1132.0
37685,872.0,939.0,1132.0
37686,872.0,939.0,2006.0
37687,872.0,939.0,3866.0
37688,872.0,939.0,3866.0
37689,872.0,1185.0,3866.0
37690,872.0,1185.0,2485.0
37691,872.0,1185.0,2485.0
37692,847.0,1185.0,1902.0
37693,847.0,1185.0,1902.0
37694,847.0,1185.0,1809.0
37695,847.0,1733.0,1809.0
37696,572.0,1733.0,1809.0
37697,514.0,1733.0,1809.0
37698,514.0,1733.0,1809.0
37699,684.0,1733.0,1809.0
37700,684.0,1733.0,1809.0
37701,684.0,1733.0,1809.0
37702,684.0,1733.0,1809.0
37703,684.0,1733.0,1809.0
37704,684.0,1733.0,1809.0
37705,684.0,1733.0,1809.0
37706,684.0,1733.0,1809.0
37707,684.0,1733.0,1950.0
37708,684.0,1733.0,1950.0
37709,684.0,1733.0,1950.0
37710,732.0,1733.0,1950.0
37711,732.0,1733.0,1950.0
37712,732.0,1733.0,1950.0
37713,732.0,1733.0,1950.0
37714,732.0,1733.0,1950.0
37715,732.0,1733.0,1950.0
37716,732.0,1733.0,1950.0
37717,732.0,1733.0,1950.0
37718,732.0,1733.0,1950.0
37719,487.0,1733.0,1950.0
37720,487.0,1497.0,1950.0
37721,487.0,1497.0,1950.0
37722,487.0,1497.0,1950.0
37723,753.0,1497.0,1950.0
37724,8885.0,1497.0,1950.0
37725,885.0,1497.0,1950.0
37726,885.0,1497.0,1950.0
37727,347.0,1497.0,1950.0
37728,347.0,1497.0,1950.0
37729,347.0,1497.0,1950.0
37730,347.0,1497.0,1950.0
37731,576.0,1497.0,1950.0
37732,576.0,1497.0,1950.0
37733,576.0,1497.0,1950.0
37734,576.0,1497.0,1950.0
39364,427.0,510.0,159.0
39365,427.0,510.0,159.0
39366,812.0,510.0,159.0
39367,812.0,510.0,159.0
39368,812.0,510.0,159.0
39369,812.0,510.0,158.0
39370,1062.0,510.0,158.0
39371,1062.0,510.0,158.0
39372,1062.0,510.0,158.0
39373,1062.0,510.0,158.0
39374,1062.0,510.0,167.0
39375,1062.0,510.0,167.0
39376,1062.0,510.0,167.0
39377,1062.0,546.0,167.0
39378,1062.0,546.0,167.0
39379,1062.0,546.0,167.0
39380,1062.0,546.0,239.0
39381,1062.0,546.0,239.0
39382,1062.0,546.0,239.0
39383,1062.0,546.0,239.0
39384,1062.0,546.0,239.0
39385,1062.0,546.0,239.0
39386,1062.0,546.0,239.0
39387,1062.0,546.0,239.0
39388,1062.0,546.0,239.0
39389,1062.0,546.0,239.0
39390,1062.0,546.0,239.0
39391,1062.0,546.0,239.0
39392,1062.0,546.0,239.0
39393,735.0,546.0,239.0
39394,735.0,546.0,239.0
39395,735.0,546.0,239.0
39396,735.0,546.0,175.0
39397,735.0,546.0,175.0
39398,735.0,546.0,175.0
39399,735.0,546.0,175.0
39400,735.0,546.0,175.0
39401,735.0,546.0,175.0
39402,735.0,874.0,175.0
39403,735.0,874.0,175.0
39404,735.0,874.0,175.0
39405,735.0,874.0,175.0
39406,735.0,874.0,175.0
39407,735.0,874.0,175.0
39408,735.0,874.0,175.0
39409,735.0,874.0,175.0
39410,735.0,874.0,175.0
39411,735.0,874.0,175.0
39412,735.0,874.0,175.0
39413,735.0,874.0,278.0
39414,735.0,1122.0,278.0
39415,735.0,1122.0,308.0
39416,735.0,1122.0,308.0
39417,735.0,1122.0,283.0
39418,735.0,1122.0,283.0
39419,735.0,1291.0,283.0
39420,735.0,1291.0,283.0
39421,735.0,1291.0,283.0
39422,735.0,1291.0,253.0
39423,735.0,1291.0,253.0
39424,735.0,1291.0,253.0
39425,735.0,1291.0,253.0
39426,735.0,1291.0,253.0
39427,735.0,1291.0,253.0
39428,735.0,1291.0,253.0
39429,735.0,1291.0,253.0
39430,735.0,1291.0,300.0
39431,735.0,1291.0,300.0
39432,735.0,442.0,300.0
39433,735.0,518.0,300.0
39434,735.0,826.0,644.0
39435,735.0,826.0,644.0
39436,735.0,732.0,644.0
39437,735.0,732.0,644.0
39438,735.0,635.0,644.0
39439,735.0,635.0,644.0
39440,735.0,635.0,213.0
39441,735.0,635.0,213.0
39442,735.0,635.0,213.0
39443,735.0,635.0,213.0
39444,735.0,635.0,282.0
39445,735.0,635.0,282.0
39446,735.0,635.0,282.0
39447,735.0,635.0,282.0
39448,735.0,635.0,282.0
39449,735.0,635.0,282.0
39450,735.0,635.0,159.0
39451,735.0,635.0,159.0
39452,735.0,635.0,159.0
39453,735.0,635.0,159.0
39454,735.0,635.0,159.0
39455,735.0,635.0,159.0
39456,735.0,635.0,159.0
39457,735.0,635.0,132.0
39458,735.0,635.0,132.0
39459,735.0,635.0,132.0
39460,735.0,635.0,132.0
39461,735.0,635.0,132.0
39462,735.0,635.0,324.0
39463,735.0,635.0,324.0
39464,735.0,635.0,324.0
39465,735.0,635.0,324.0
39466,735.0,635.0,324.0
39467,735.0,635.0,324.0
39468,735.0,635.0,324.0
39469,735.0,635.0,324.0
39470,735.0,635.0,324.0
39471,735.0,635.0,324.0
39472,735.0,635.0,324.0
39473,735.0,635.0,261.0
39474,735.0,635.0,261.0
39475,735.0,635.0,261.0
39476,735.0,635.0,261.0
39477,735.0,635.0,261.0
39478,735.0,635.0,261.0
39479,735.0,635.0,261.0
39480,735.0,635.0,261.0
39481,735.0,635.0,102.0
39482,735.0,635.0,102.0
39483,735.0,635.0,102.0
39484,735.0,635.0,102.0
39485,735.0,635.0,299.0
39486,735.0,635.0,299.0
39487,735.0,635.0,299.0
39488,399.0,635.0,299.0
39489,399.0,635.0,299.0
39490,399.0,635.0,299.0
39491,399.0,635.0,299.0
39492,399.0,801.0,299.0
39493,399.0,801.0,299.0
39494,399.0,801.0,299.0
39495,399.0,801.0,299.0
39496,399.0,801.0,300.0
39497,399.0,801.0,300.0
39498,399.0,801.0,300.0
39499,399.0,801.0,300.0
39500,399.0,801.0,444.0
39501,399.0,801.0,444.0
39502,399.0,801.0,444.0
39503,399.0,801.0,444.0
39504,399.0,801.0,268.0
39505,399.0,801.0,296.0
39506,399.0,801.0,296.0
39507,399.0,801.0,381.0
39508,399.0,801.0,170.0
39509,399.0,801.0,170.0
39510,399.0,801.0,145.0
39511,399.0,801.0,145.0
39512,399.0,801.0,145.0
39513,399.0,801.0,145.0
39514,399.0,801.0,145.0
39515,399.0,801.0,145.0
39516,399.0,801.0,145.0
39517,399.0,801.0,145.0
41068,420.0,352.0,440.0
41069,420.0,352.0,440.0
41070,420.0,147.0,440.0
41071,420.0,147.0,440.0
41072,420.0,126.0,440.0
41073,420.0,126.0,440.0
41074,420.0,108.0,440.0
41075,420.0,108.0,440.0
41076,420.0,108.0,440.0
41077,420.0,108.0,440.0
41078,420.0,191.0,440.0
41079,420.0,191.0,440.0
41080,420.0,191.0,440.0
41081,420.0,252.0,440.0
41082,420.0,252.0,440.0
41083,420.0,252.0,440.0
41084,420.0,252.0,440.0
41085,420.0,252.0,440.0
41086,420.0,252.0,971.0
41087,420.0,252.0,971.0
41088,420.0,252.0,971.0
41089,560.0,252.0,971.0
41090,560.0,252.0,971.0
41091,560.0,252.0,971.0
41092,560.0,252.0,971.0
41093,560.0,220.0,971.0
41094,560.0,220.0,971.0
41095,560.0,220.0,971.0
41096,560.0,220.0,971.0
41097,560.0,220.0,971.0
41098,560.0,220.0,971.0
41099,560.0,220.0,971.0
41100,560.0,287.0,971.0
41101,560.0,287.0,971.0
41102,560.0,287.0,971.0
41103,560.0,287.0,971.0
41104,560.0,287.0,971.0
41105,560.0,287.0,971.0
41106,560.0,287.0,971.0
41107,560.0,393.0,971.0
41108,560.0,393.0,971.0
41109,560.0,393.0,971.0
41110,560.0,393.0,971.0
41111,560.0,393.0,971.0
41112,560.0,393.0,971.0
41113,560.0,393.0,971.0
41114,560.0,393.0,971.0
41115,560.0,393.0,971.0
41116,560.0,393.0,971.0
41117,560.0,393.0,971.0
41118,560.0,393.0,971.0
41119,560.0,452.0,971.0
41120,560.0,452.0,971.0
41121,560.0,561.0,971.0
41122,1732.0,561.0,1393.0
41123,1732.0,561.0,1393.0
41124,1732.0,375.0,1393.0
41125,1732.0,375.0,1393.0
41126,1732.0,405.0,1393.0
41127,833.0,405.0,1393.0
41128,833.0,405.0,1142.0
41129,833.0,405.0,1142.0
41130,833.0,405.0,1142.0
41131,833.0,405.0,1142.0
41132,833.0,405.0,783.0
41133,833.0,405.0,783.0
41134,833.0,405.0,783.0
41135,833.0,405.0,783.0
41136,833.0,405.0,783.0
41137,833.0,405.0,783.0
41138,833.0,405.0,783.0
41139,833.0,405.0,783.0
41140,833.0,405.0,783.0
41141,833.0,405.0,574.0
41142,833.0,405.0,574.0
41143,833.0,405.0,574.0
41144,833.0,405.0,574.0
41145,833.0,405.0,574.0
41146,833.0,405.0,574.0
41147,833.0,405.0,574.0
41148,833.0,405.0,574.0
41149,1084.0,405.0,574.0
41150,1084.0,405.0,574.0
41151,1084.0,405.0,574.0
41152,1084.0,405.0,574.0
41153,1084.0,405.0,574.0
41154,1084.0,405.0,574.0
41155,1212.0,405.0,574.0
41156,1212.0,405.0,574.0
41157,1212.0,405.0,574.0
41158,1212.0,405.0,574.0
41159,1212.0,405.0,574.0
41160,1212.0,417.0,574.0
41161,1212.0,417.0,574.0
41162,1212.0,258.0,574.0
41163,1212.0,258.0,574.0
41164,1135.0,258.0,574.0
41165,1135.0,258.0,574.0
41166,1135.0,450.0,574.0
41167,1135.0,450.0,574.0
41168,1135.0,450.0,574.0
41169,1135.0,202.0,574.0
41170,1135.0,202.0,574.0
41171,1135.0,202.0,574.0
41172,1135.0,587.0,574.0
41173,1135.0,587.0,574.0
41174,917.0,587.0,574.0
41175,917.0,587.0,574.0
41176,917.0,587.0,574.0
41177,917.0,587.0,574.0
41178,917.0,544.0,574.0
41179,917.0,544.0,574.0
41180,986.0,544.0,574.0
41181,986.0,544.0,574.0
41182,986.0,544.0,574.0
41183,986.0,367.0,1312.0
41184,986.0,367.0,1312.0
41185,986.0,957.0,1312.0
41186,986.0,957.0,1312.0
41187,986.0,334.0,1312.0
41188,986.0,334.0,1312.0
41189,986.0,334.0,1312.0
41190,986.0,400.0,1312.0
41191,986.0,400.0,543.0
41192,986.0,400.0,980.0
41193,986.0,400.0,980.0
41194,986.0,400.0,980.0
41195,986.0,400.0,980.0
41196,986.0,400.0,980.0
41197,986.0,400.0,980.0
41198,986.0,400.0,980.0
41199,986.0,400.0,980.0
41200,986.0,400.0,980.0
41201,986.0,400.0,980.0
41202,986.0,400.0,980.0
41203,986.0,400.0,980.0
41204,986.0,400.0,980.0
41205,585.0,252.0,980.0
41206,585.0,252.0,980.0
41207,585.0,252.0,980.0
41208,585.0,252.0,980.0
41209,585.0,252.0,980.0
41210,585.0,252.0,980.0
41211,585.0,252.0,980.0
41212,585.0,252.0,980.0
41213,585.0,252.0,980.0
41214,585.0,252.0,1125.0
41215,585.0,405.0,1125.0
41216,585.0,405.0,1125.0
41217,585.0,405.0,1125.0
41218,585.0,405.0,1125.0
41219,585.0,405.0,1125.0
41220,585.0,405.0,1125.0
41221,585.0,239.0,1125.0
42496,6568.0,2165.0,1266.0
42497,6568.0,2165.0,1266.0
42498,6568.0,2165.0,1266.0
42499,6568.0,2165.0,1266.0
42500,6568.0,2165.0,1266.0
42501,6568.0,2165.0,1266.0
42502,2.0,2165.0,1266.0
42503,6568568.0,2165.0,1031.0
42504,6568.0,2165.0,1031.0
42505,6568.0,2165.0,1031.0
42506,6568.0,2165.0,1031.0
42507,3143.0,2165.0,1031.0
42508,3143.0,2165.0,1031.0
42509,3143.0,2165.0,1031.0
42510,3143.0,2165.0,1031.0
42511,3143.0,2165.0,1031.0
42512,3143.0,2165.0,1229.0
42513,3143.0,2165.0,1229.0
42514,3143.0,2165.0,1229.0
42515,3143.0,2165.0,327.0
42516,3143.0,2165.0,327.0
42517,314.0,2165.0,327.0
42518,5516.0,2165.0,327.0
42519,5516.0,2165.0,327.0
42520,5516.0,2165.0,327.0
42521,5516.0,2165.0,327.0
42522,3840.0,2165.0,327.0
42523,3840.0,2165.0,327.0
42524,1755.0,1571.0,327.0
42525,1755.0,1571.0,327.0
42526,1755.0,809.0,327.0
42527,2555.0,809.0,327.0
42528,2555.0,809.0,327.0
42529,2555.0,809.0,327.0
42530,2555.0,809.0,327.0
42531,2555.0,809.0,327.0
42532,2555.0,809.0,327.0
42533,2555.0,809.0,327.0
42534,3150.0,809.0,327.0
42535,3265.0,809.0,327.0
42536,3265.0,809.0,327.0
42537,3265.0,809.0,327.0
42538,3265.0,809.0,327.0
42539,50.0,809.0,327.0
42540,3488.0,809.0,327.0
42541,4503.0,809.0,327.0
42542,4503.0,809.0,327.0
42543,2505.0,809.0,327.0
42544,2505.0,809.0,327.0
42545,5396.0,809.0,327.0
42546,5396.0,809.0,327.0
42547,5396.0,809.0,1833.0
42548,5396.0,809.0,1455.0
42549,5396.0,809.0,1455.0
42550,5396.0,809.0,1455.0
42551,5396.0,809.0,1455.0
42552,5396.0,2208.0,1103.0
42553,5396.0,2208.0,1103.0
42554,5396.0,2555.0,1103.0
42555,5396.0,2555.0,1103.0
42556,5396.0,2555.0,1103.0
42557,5396.0,2555.0,1002.0
42558,5396.0,1010.0,1002.0
42559,5396.0,1010.0,1002.0
42560,5396.0,1599.0,1002.0
42561,5.0,1599.0,1002.0
42562,53965396.0,1908.0,1002.0
42563,5396.0,1908.0,1002.0
42564,5396.0,1908.0,1002.0
42565,5396.0,1908.0,1002.0
42566,5396.0,1908.0,1002.0
42567,5396.0,1908.0,1002.0
42568,5396.0,1908.0,1002.0
42569,4638.0,1908.0,1002.0
42570,4638.0,1908.0,1002.0
42571,4638.0,1908.0,1002.0
42572,4638.0,1908.0,1002.0
42573,4638.0,1908.0,1002.0
42574,4638.0,1908.0,1002.0
42575,4638.0,1908.0,1002.0
42576,4638.0,1908.0,1002.0
42577,4638.0,2503.0,1002.0
42578,4638.0,2503.0,1002.0
42579,4638.0,2503.0,1158.0
42580,4638.0,2503.0,1158.0
42581,4638.0,1315.0,1158.0
42582,4638.0,1315.0,1158.0
42583,4638.0,1315.0,1158.0
42584,4638.0,1315.0,1158.0
42585,4638.0,1315.0,1158.0
42586,4638.0,1315.0,1158.0
42587,4638.0,1315.0,1158.0
42588,4638.0,984.0,1158.0
42589,4638.0,984.0,1158.0
42590,4638.0,984.0,450.0
42591,4638.0,984.0,450.0
42592,4638.0,984.0,450.0
42593,4638.0,984.0,450.0
42594,4638.0,1499.0,502.0
42595,4638.0,1499.0,502.0
42596,4638.0,1499.0,1411.0
42597,4638.0,1499.0,1411.0
42598,4638.0,1499.0,1411.0
42599,4638.0,1499.0,1411.0
42600,4638.0,1499.0,1411.0
42601,4638.0,1499.0,1411.0
42602,4638.0,1804.0,1411.0
42603,4638.0,1804.0,430.0
42604,4638.0,1804.0,430.0
42605,4638.0,1804.0,430.0
42606,4638.0,1804.0,430.0
42607,4638.0,1804.0,430.0
42608,4638.0,1804.0,897.0
42609,4638.0,1804.0,897.0
42610,4638.0,1804.0,897.0
42611,4638.0,1804.0,897.0
42612,4638.0,2034.0,897.0
42613,4638.0,2034.0,710.0
42614,4638.0,2034.0,710.0
42615,4638.0,2034.0,710.0
42616,4638.0,2034.0,710.0
42617,4638.0,2034.0,1267.0
42618,4638.0,2034.0,1267.0
42619,4638.0,2034.0,719.0
42620,4638.0,2034.0,719.0
42621,4638.0,1039.0,719.0
42622,4638.0,1039.0,719.0
42623,4638.0,1039.0,719.0
42624,4638.0,1039.0,719.0
42625,4638.0,1039.0,719.0
42626,4638.0,1039.0,719.0
42627,4638.0,1039.0,719.0
42628,4638.0,1966.0,1109.0
42629,4638.0,1966.0,1109.0
42630,4638.0,924.0,1109.0
42631,4638.0,924.0,1109.0
42632,4638.0,1357.0,1109.0
42633,4638.0,1357.0,1109.0
44436,2666.0,644.0,881.0
44437,4144146.0,644.0,881.0
44438,4146.0,644.0,881.0
44439,4146.0,644.0,881.0
44440,4146.0,644.0,881.0
44441,4146.0,644.0,881.0
44442,4146.0,644.0,881.0
44443,4146.0,644.0,881.0
44444,4146.0,644.0,881.0
44445,4146.0,644.0,881.0
44446,2101.0,644.0,881.0
44447,2101.0,644.0,881.0
44448,2101.0,644.0,881.0
44449,2101.0,644.0,881.0
44450,2101.0,644.0,658.0
44451,2101.0,644.0,658.0
44452,924.0,644.0,658.0
44453,924.0,644.0,658.0
44454,924.0,644.0,1612.0
44455,924.0,644.0,1612.0
44456,924.0,644.0,1612.0
44457,924.0,644.0,1612.0
44458,924.0,644.0,1612.0
44459,924.0,644.0,1612.0
44460,924.0,644.0,1612.0
44461,924.0,644.0,1612.0
44462,924.0,644.0,1612.0
44463,924.0,644.0,1612.0
44464,924.0,644.0,1612.0
44465,924.0,644.0,1612.0
44466,924.0,644.0,1612.0
44467,924.0,644.0,1612.0
44468,924.0,644.0,1612.0
44469,924.0,644.0,1612.0
44470,924.0,644.0,361.0
44471,924.0,644.0,361.0
44472,924.0,644.0,1367.0
44473,924.0,644.0,1367.0
44474,924.0,644.0,1367.0
44475,924.0,644.0,1367.0
44476,924.0,644.0,1305.0
44477,924.0,644.0,1305.0
44478,1591.0,644.0,1305.0
44479,1591.0,644.0,1305.0
44480,1591.0,644.0,1305.0
44481,1591.0,644.0,1305.0
44482,1591.0,644.0,1305.0
44483,3235.0,644.0,1305.0
44484,3235.0,644.0,1305.0
44485,1880.0,644.0,1305.0
44486,1880.0,644.0,1305.0
44487,1880.0,644.0,1305.0
44488,1880.0,644.0,566.0
44489,1880.0,644.0,566.0
44490,880.0,644.0,566.0
44491,11880.0,644.0,1288.0
44492,1880.0,644.0,1288.0
44493,1880.0,644.0,1288.0
44494,1880.0,644.0,1288.0
44495,1880.0,644.0,1288.0
44496,1880.0,644.0,1288.0
44497,1880.0,644.0,1288.0
44498,1880.0,644.0,1288.0
44499,1880.0,644.0,1288.0
44500,1880.0,644.0,1288.0
44501,1880.0,644.0,1288.0
44502,1880.0,644.0,1288.0
44503,1880.0,644.0,1288.0
44504,1880.0,644.0,1419.0
44505,1880.0,644.0,961.0
44506,1880.0,644.0,961.0
44507,1880.0,644.0,961.0
44508,1880.0,644.0,961.0
44509,2572.0,644.0,961.0
44510,2572.0,644.0,1028.0
44511,2572.0,644.0,1028.0
44512,2572.0,644.0,1028.0
44513,2572.0,644.0,1201.0
44514,2572.0,644.0,1201.0
44515,2572.0,644.0,1201.0
44516,2572.0,644.0,1201.0
44517,2572.0,644.0,1201.0
44518,2572.0,1364.0,1201.0
44519,2572.0,1364.0,1201.0
44520,2572.0,1364.0,1201.0
44521,2572.0,1364.0,754.0
44522,2572.0,1364.0,754.0
44523,2572.0,1597.0,754.0
44524,2572.0,1597.0,976.0
44525,2572.0,1597.0,976.0
44526,2572.0,1597.0,976.0
44527,2572.0,1597.0,976.0
44528,2572.0,1597.0,976.0
44529,2572.0,1597.0,976.0
44530,2572.0,1597.0,778.0
44531,2572.0,1597.0,778.0
44532,2572.0,1597.0,512.0
44533,2572.0,1597.0,512.0
44534,2572.0,1597.0,512.0
44535,1697.0,1597.0,979.0
44536,1697.0,1597.0,979.0
44537,1697.0,1597.0,979.0
44538,1697.0,1597.0,430.0
44539,1697.0,1597.0,1792.0
44540,1697.0,1597.0,1792.0
44541,1697.0,1597.0,1792.0
44542,1697.0,1597.0,1792.0
44543,257697.0,1597.0,1792.0
44544,11697.0,1597.0,661.0
44545,1697.0,1597.0,661.0
44546,1697.0,1597.0,661.0
44547,2972.0,1597.0,661.0
44548,2972.0,1597.0,661.0
44549,2972.0,1597.0,661.0
44550,2972.0,1597.0,661.0
44551,1918.0,1597.0,661.0
44552,1918.0,1597.0,833.0
44553,1918.0,1597.0,833.0
44554,1918.0,1597.0,833.0
44555,918.0,1597.0,833.0
44556,11918.0,1597.0,833.0
44557,1918.0,1597.0,833.0
44558,1918.0,1597.0,833.0
44559,1918.0,1597.0,833.0
44560,3154.0,1597.0,833.0
44561,3154.0,1597.0,833.0
44562,3620.0,1597.0,833.0
44563,3620.0,1597.0,833.0
44564,3620.0,1597.0,819.0
44565,3172.0,1597.0,819.0
44566,3172.0,1597.0,819.0
44567,2993.0,1597.0,819.0
44568,2993.0,1597.0,819.0
44569,1598.0,1597.0,819.0
44570,1598.0,1597.0,819.0
46209,377.0,783.0,123.0
46210,377.0,961.0,123.0
46211,377.0,961.0,123.0
46212,377.0,961.0,123.0
46213,377.0,961.0,123.0
46214,377.0,961.0,123.0
46215,377.0,961.0,123.0
46216,377.0,961.0,83.0
46217,377.0,961.0,83.0
46218,377.0,989.0,83.0
46219,377.0,989.0,83.0
46220,377.0,989.0,83.0
46221,377.0,989.0,83.0
46222,377.0,1168.0,83.0
46223,377.0,1168.0,83.0
46224,377.0,1168.0,83.0
46225,377.0,1168.0,139.0
46226,377.0,1168.0,139.0
46227,377.0,1168.0,139.0
46228,377.0,1168.0,139.0
46229,377.0,1168.0,203.0
46230,377.0,1168.0,203.0
46231,377.0,1168.0,203.0
46232,377.0,1168.0,203.0
46233,377.0,1168.0,203.0
46234,377.0,1168.0,203.0
46235,377.0,1168.0,203.0
46236,377.0,1168.0,203.0
46237,377.0,1168.0,203.0
46238,377.0,1168.0,203.0
46239,377.0,1168.0,203.0
46240,377.0,607.0,203.0
46241,377.0,876.0,203.0
46242,377.0,876.0,260.0
46243,377.0,876.0,185.0
46244,377.0,876.0,162.0
46245,377.0,876.0,162.0
46246,377.0,876.0,162.0
46247,377.0,876.0,162.0
46248,377.0,876.0,162.0
46249,377.0,876.0,189.0
46250,377.0,876.0,374.0
46251,377.0,876.0,229.0
46252,377.0,876.0,269.0
46253,627.0,876.0,269.0
46254,627.0,876.0,269.0
46255,627.0,876.0,92.0
46256,627.0,876.0,168.0
46257,627.0,876.0,168.0
46258,627.0,876.0,178.0
46259,627.0,876.0,119.0
46260,627.0,876.0,230.0
46261,627.0,876.0,230.0
46262,627.0,876.0,183.0
46263,627.0,876.0,291.0
46264,627.0,876.0,291.0
46265,627.0,876.0,291.0
46266,627.0,876.0,291.0
46267,627.0,876.0,291.0
46268,627.0,876.0,291.0
46269,627.0,876.0,291.0
46270,627.0,876.0,291.0
46271,627.0,876.0,291.0
46272,627.0,876.0,121.0
46273,627.0,876.0,121.0
46274,627.0,876.0,249.0
46275,627.0,876.0,249.0
46276,627.0,876.0,249.0
46277,627.0,876.0,249.0
46278,627.0,876.0,249.0
46279,62727.0,876.0,197.0
46280,6627.0,876.0,197.0
46281,313.0,876.0,197.0
46282,313.0,876.0,197.0
46283,313.0,876.0,197.0
46284,313.0,876.0,197.0
46285,313.0,876.0,197.0
46286,313.0,876.0,197.0
46287,313.0,876.0,197.0
46288,313.0,876.0,197.0
46289,313.0,876.0,197.0
46290,313.0,876.0,197.0
46291,313.0,876.0,197.0
46292,313.0,876.0,197.0
46293,313.0,876.0,197.0
46294,313.0,876.0,99.0
46295,313.0,876.0,99.0
46296,313.0,876.0,220.0
46297,313.0,876.0,220.0
46298,313.0,876.0,220.0
46299,313.0,876.0,264.0
46300,313.0,876.0,264.0
46301,372.0,876.0,264.0
46302,372.0,876.0,264.0
46303,372.0,876.0,264.0
46304,372.0,876.0,264.0
46305,496.0,876.0,264.0
46306,496.0,876.0,264.0
46307,496.0,876.0,157.0
46308,496.0,876.0,136.0
46309,496.0,876.0,136.0
46310,496.0,876.0,305.0
46311,496.0,876.0,305.0
46312,496.0,876.0,173.0
46313,496.0,876.0,173.0
46314,769.0,876.0,308.0
46315,769.0,876.0,308.0
46316,769.0,876.0,308.0
46317,769.0,876.0,308.0
46318,769.0,876.0,308.0
46319,769.0,876.0,308.0
46320,769.0,876.0,308.0
46321,769.0,876.0,308.0
46322,769.0,876.0,308.0
46323,769.0,876.0,308.0
46324,769.0,876.0,308.0
46325,822.0,876.0,308.0
46326,822.0,876.0,308.0
46327,822.0,876.0,308.0
46328,822.0,876.0,308.0
46329,822.0,876.0,308.0
46330,514.0,876.0,308.0
46331,514.0,876.0,308.0
46332,514.0,876.0,308.0
46333,514.0,876.0,308.0
46334,693.0,876.0,308.0
46335,693.0,876.0,308.0
46336,693.0,876.0,308.0
46337,693.0,876.0,308.0
46338,693.0,876.0,211.0
46339,693.0,876.0,125.0
46340,693.0,876.0,125.0
46341,693.0,876.0,312.0
46342,693.0,876.0,312.0
48111,1229.0,205.0,483.0
48112,1229.0,205.0,483.0
48113,1229.0,205.0,483.0
48114,1229.0,205.0,483.0
48115,1229.0,205.0,483.0
48116,604.0,205.0,483.0
48117,604.0,205.0,483.0
48118,305.0,205.0,483.0
48119,305.0,205.0,483.0
48120,1394.0,205.0,483.0
48121,1394.0,205.0,483.0
48122,1394.0,205.0,483.0
48123,1394.0,205.0,483.0
48124,1394.0,205.0,483.0
48125,1051.0,205.0,483.0
48126,1051.0,205.0,483.0
48127,1051.0,205.0,483.0
48128,1051.0,205.0,483.0
48129,1051.0,205.0,483.0
48130,534.0,205.0,483.0
48131,534.0,205.0,483.0
48132,534.0,205.0,483.0
48133,534.0,205.0,483.0
48134,534.0,205.0,483.0
48135,534.0,205.0,483.0
48136,534.0,205.0,483.0
48137,743.0,200.0,483.0
48138,743.0,200.0,483.0
48139,743.0,200.0,483.0
48140,743.0,200.0,483.0
48141,743.0,200.0,483.0
48142,743.0,200.0,483.0
48143,663.0,200.0,483.0
48144,663.0,155.0,483.0
48145,663.0,187.0,483.0
48146,663.0,242.0,483.0
48147,1076.0,242.0,483.0
48148,1076.0,167.0,483.0
48149,1076.0,167.0,483.0
48150,1076076.0,214.0,483.0
48151,1076.0,214.0,483.0
48152,1076.0,214.0,483.0
48153,1076.0,214.0,483.0
48154,1076.0,214.0,483.0
48155,1076.0,155.0,483.0
48156,801.0,155.0,483.0
48157,801.0,155.0,483.0
48158,1397.0,155.0,483.0
48159,1397.0,155.0,483.0
48160,1397.0,155.0,483.0
48161,1397.0,155.0,483.0
48162,1397.0,398.0,483.0
48163,1397.0,429.0,483.0
48164,1397.0,429.0,483.0
48165,1397.0,429.0,483.0
48166,1397.0,429.0,483.0
48167,1397.0,429.0,483.0
48168,1397.0,429.0,483.0
48169,1174.0,332.0,483.0
48170,1174.0,264.0,483.0
48171,1061.0,264.0,483.0
48172,8861.0,229.0,483.0
48173,861.0,212.0,483.0
48174,1020.0,212.0,483.0
48175,1020.0,55.0,483.0
48176,1020.0,55.0,483.0
48177,1020.0,55.0,483.0
48178,1020.0,55.0,483.0
48179,1020.0,613.0,483.0
48180,1020.0,613.0,483.0
48181,1020.0,613.0,483.0
48182,1020.0,492.0,483.0
48183,1020.0,123.0,483.0
48184,1020.0,139.0,483.0
48185,1020.0,139.0,483.0
48186,1020.0,79.0,483.0
48187,1020.0,79.0,483.0
48188,603.0,450.0,483.0
48189,603.0,194.0,483.0
48190,603.0,301.0,483.0
48191,1021.0,301.0,483.0
48192,1021.0,301.0,483.0
48193,1021.0,228.0,483.0
48194,1021.0,228.0,483.0
48195,1021.0,154.0,483.0
48196,1021.0,154.0,483.0
48197,1021.0,154.0,483.0
48198,1021.0,402.0,483.0
48199,1021.0,402.0,483.0
48200,1021.0,402.0,483.0
48201,1021.0,402.0,483.0
48202,1021.0,1981021.0,198.0
49410,550.0,641.0,76.0
49411,679.0,641.0,76.0
49412,679.0,360.0,76.0
49413,903.0,558.0,76.0
49414,903.0,558.0,76.0
49415,903.0,558.0,76.0
49416,903.0,558.0,76.0
49417,903.0,558.0,76.0
49418,903.0,558.0,76.0
49419,903.0,558.0,76.0
49420,903.0,277.0,76.0
49421,903.0,277.0,76.0
49422,1109.0,277.0,76.0
49423,1109.0,277.0,76.0
49424,1109.0,277.0,76.0
49425,1109.0,277.0,76.0
49426,1109.0,277.0,76.0
49427,1109.0,277.0,76.0
49428,1109.0,277.0,76.0
49429,1109.0,277.0,76.0
49430,1109.0,277.0,76.0
49431,1109.0,277.0,76.0
49432,1109.0,636.0,76.0
49433,1109.0,636.0,76.0
49434,1109.0,471.0,76.0
49435,1109.0,471.0,76.0
49436,972.0,471.0,76.0
49437,653.0,324.0,76.0
49438,653.0,324.0,76.0
49439,946.0,324.0,76.0
49440,946.0,324.0,76.0
49441,946.0,324.0,76.0
49442,946.0,324.0,76.0
49443,946.0,324.0,76.0
49444,946.0,226.0,76.0
49445,946.0,226.0,76.0
49446,946.0,226.0,76.0
49447,946.0,226.0,76.0
49448,1451.0,226.0,76.0
49449,1451.0,226.0,76.0
49450,1451.0,226.0,76.0
49451,1451.0,226.0,76.0
49452,1451.0,226.0,76.0
49453,2009.0,226.0,76.0
49454,2009.0,226.0,76.0
49455,2009.0,226.0,76.0
49456,2009.0,226.0,76.0
49457,2009.0,226.0,76.0
49458,1211.0,226.0,76.0
49459,1211.0,226.0,76.0
49460,1108.0,226.0,76.0
49461,1597.0,226.0,76.0
49462,1285.0,226.0,76.0
49463,939.0,226.0,76.0
49464,939.0,1007.0,76.0
49465,939.0,1007.0,76.0
49466,939.0,1007.0,76.0
49467,939.0,1007.0,76.0
49468,939.0,1007.0,76.0
49469,981.0,1007.0,76.0
49470,981.0,1007.0,76.0
49471,981.0,1007.0,76.0
49472,981.0,1007.0,76.0
49473,981.0,1007.0,76.0
49474,981.0,1007.0,76.0
49475,981.0,1007.0,76.0
49476,861.0,1007.0,76.0
49477,861.0,1007.0,76.0
49478,861.0,1007.0,76.0
49479,861.0,1007.0,76.0
49480,913.0,1007.0,76.0
49481,913.0,1007.0,76.0
49482,649.0,1007.0,76.0
49483,649.0,1007.0,76.0
49484,1091.0,1007.0,76.0
49485,1526.0,1007.0,76.0
49486,1526.0,1007.0,76.0
49487,1526.0,1007.0,76.0
49488,1526.0,1007.0,76.0
49489,1526.0,1007.0,76.0
49490,1526.0,1591.0,76.0
49491,797.0,1591.0,76.0
49492,797.0,1591.0,76.0
49493,797.0,1591.0,76.0
49494,797.0,1591.0,76.0
49495,797.0,1591.0,76.0
49496,797.0,1591.0,76.0
49497,797.0,1591.0,76.0
49498,797.0,1591.0,76.0
49499,797.0,1591.0,76.0
49500,1133.0,1591.0,76.0
49501,1133.0,1591.0,76.0
49502,1083.0,1591.0,76.0
49503,1083.0,1591.0,76.0
49504,1083.0,1591.0,76.0
49505,1142.0,1591.0,76.0
49506,1142.0,1591.0,76.0
49507,1142.0,1591.0,76.0
49508,1142.0,1591.0,76.0
49509,1142.0,1591.0,76.0
49510,1142.0,1591.0,76.0
49511,1142.0,1591.0,76.0
49512,1142.0,1591.0,76.0
49513,1142.0,1591.0,76.0
49514,542.0,1591.0,76.0
49515,1336.0,1591.0,76.0
49516,1336.0,1591.0,76.0
49517,1336.0,1591.0,76.0
49518,1336.0,1591.0,76.0
49519,1336.0,1591.0,76.0
49520,1336.0,1591.0,76.0
49521,1336.0,1591.0,76.0
49522,1336.0,1591.0,76.0
49523,1336.0,1269.0,76.0
49524,1336.0,1269.0,76.0
49525,1336.0,1269.0,76.0
49526,1336.0,1269.0,76.0
49527,1336.0,1269.0,76.0
49528,1336.0,1269.0,76.0
49529,1336.0,1269.0,76.0
49530,1336.0,1269.0,76.0
49531,1336.0,533.0,76.0
49532,1336.0,533.0,76.0
49533,1336.0,533.0,76.0
49534,1336.0,533.0,76.0
49535,1336.0,533.0,76.0
49536,1336.0,533.0,76.0
49537,1336.0,533.0,76.0
49538,1356.0,533.0,76.0
49539,1356.0,533.0,76.0
49540,1356.0,1384.0,76.0
49541,1356.0,1384.0,76.0
49542,1356.0,1384.0,76.0
49543,1356.0,1386.0,76.0
49544,1356.0,1386.0,76.0
49545,1356.0,1386.0,76.0
49546,608.0,1386.0,76.0
49547,608.0,1386.0,76.0
49548,608.0,1386.0,76.0
49549,608.0,1386.0,76.0
49550,608.0,1386.0,76.0
49551,608.0,1386.0,76.0
49552,608.0,1386.0,76.0
49553,608.0,1386.0,76.0
49554,608.0,1386.0,76.0
49555,608.0,1386.0,76.0
49556,608.0,1386.0,76.0
49557,813.0,1386.0,76.0
55448,2068.0,1189.0,5758.0
55449,2068.0,1536.0,5758.0
55450,206800.0,1087.0,5758.0
55451,2068.0,1087.0,5758.0
55452,1912.0,1087.0,5758.0
55453,1915.0,1087.0,5758.0
55454,1538.0,1087.0,5758.0
55455,1866.0,1087.0,5758.0
55456,1887.0,1087.0,5758.0
55457,1887.0,1087.0,5758.0
55458,1972.0,1087.0,2794.0
55459,1900.0,1087.0,2794.0
55460,910.0,1087.0,2794.0
55461,564.0,1087.0,2794.0
55462,2260.0,1243.0,2794.0
55463,1094.0,1243.0,2794.0
55464,1094.0,1243.0,4184.0
55465,1094.0,1243.0,1227.0
55466,2136.0,1243.0,1227.0
55467,2136.0,1243.0,2994.0
55468,2136.0,1243.0,2050.0
55469,2136.0,1243.0,2050.0
55470,2136.0,260.0,2050.0
55471,2136.0,1255.0,2050.0
55472,2136.0,1255.0,2050.0
55473,2136.0,710.0,1539.0
55474,2136.0,710.0,1539.0
55475,196964.0,798.0,1539.0
55476,8.0,740.0,3102.0
55477,2898.0,740.0,3102.0
55478,28898.0,1406.0,3102.0
55479,2898.0,745.0,3102.0
55480,2898.0,745.0,3102.0
55481,2898.0,745.0,3102.0
55482,2898.0,1343.0,3102.0
55483,2898.0,1343.0,3102.0
55484,2898.0,556.0,3102.0
55485,2898.0,455.0,3102.0
55486,2898.0,1096.0,3102.0
55487,2898.0,1096.0,3102.0
55488,2898.0,1096.0,3102.0
55489,1500.0,1096.0,3102.0
55490,1720.0,1096.0,3102.0
55491,1720.0,1096.0,5397.0
55492,1720.0,1096.0,5397.0
55493,1720.0,1446.0,5397.0
55494,1720.0,1446.0,5397.0
55495,1720.0,1446.0,2699.0
55496,1720.0,1446.0,3838.0
55497,1720.0,1446.0,3084.0
55498,1720.0,1446.0,1839.0
55499,1410.0,1446.0,1839.0
55500,1410.0,1446.0,2685.0
55501,1410.0,1446.0,2685.0
55502,1410.0,1446.0,2685.0
55503,1410.0,1446.0,2948.0
55504,1410.0,1446.0,2948.0
55505,1410.0,1446.0,2948.0
55506,1410.0,1446.0,2698.0
55507,1138.0,1446.0,2698.0
55508,542.0,1446.0,2698.0
55509,2858.0,1446.0,2698.0
55510,2518.0,1446.0,2698.0
55511,2518.0,1446.0,2698.0
55512,2518.0,2011.0,2698.0
55513,1174.0,2011.0,2698.0
55514,1174.0,1096.0,2698.0
55515,1174.0,1096.0,2698.0
55516,1174.0,1096.0,2698.0
55517,1851.0,1096.0,2698.0
55518,1566.0,1096.0,2698.0
55519,2992.0,1096.0,2698.0
55520,1265.0,1147.0,2698.0
55521,1265.0,1147.0,2698.0
55522,1265.0,602.0,2698.0
55523,1265.0,1021.0,2698.0
55524,1265.0,1021.0,2698.0
55525,1265.0,1021.0,2698.0
55526,1265.0,309.0,2698.0
55527,1273.0,309.0,2698.0
55528,1273.0,309.0,2698.0
55529,1273.0,309.0,2698.0
55530,1273.0,309.0,2698.0
55531,1273.0,672.0,2698.0
55532,1273.0,672.0,2698.0
55533,1273.0,1370.0,3357.0
55534,1273.0,339.0,3357.0
55535,1294.0,339.0,3357.0
55536,1765.0,339.0,3357.0
55537,1550.0,339.0,3357.0
55538,1550.0,339.0,3357.0
55539,1550.0,339.0,3357.0
55540,1550.0,339.0,3357.0
55541,1550.0,298.0,3357.0
55542,1084.0,565.0,3357.0
55543,1084.0,1589.0,3357.0
55544,1095.0,1589.0,4081.0
55545,938.0,1589.0,4081.0
55546,938.0,1589.0,4081.0
55547,938.0,1589.0,4081.0
55548,938.0,1152.0,2201.0
55549,938.0,1152.0,2201.0
55550,938.0,1511.0,2201.0
55551,1048.0,1511.0,2201.0
55552,1048.0,1511.0,2201.0
55553,1048.0,1511.0,2201.0
55554,1048.0,1280.0,2201.0
55555,1048.0,1280.0,2201.0
55556,449.0,1213.0,2201.0
55557,449.0,821.0,2201.0
55558,449.0,821.0,2455.0
55559,449.0,821.0,2455.0
55560,449.0,821.0,2455.0
55561,449.0,821.0,2854.0
55562,449.0,592.0,2854.0
55563,449.0,592.0,2854.0
55564,449.0,591.0,2854.0
55565,449.0,591.0,2854.0
55566,449.0,1378.0,2854.0
55567,2080.0,1378.0,2854.0
55568,3217.0,1378.0,2854.0
55569,1009.0,1378.0,2854.0
55570,2550.0,475.0,2854.0
55571,99.0,475.0,2854.0
57270,1713.0,684.0,3671.0
57271,1713.0,684.0,3671.0
57272,1713.0,684.0,3671.0
57273,1547.0,684.0,3671.0
57274,1547.0,684.0,3671.0
57275,1547.0,497.0,3671.0
57276,1209.0,497.0,3671.0
57277,1209.0,902.0,3671.0
57278,1209.0,2430.0,3671.0
57279,1209.0,579.0,3671.0
57280,1209.0,579.0,3671.0
57281,1209.0,579.0,3671.0
57282,1209.0,579.0,3671.0
57283,1209.0,579.0,3671.0
57284,1209.0,579.0,3671.0
57285,1209.0,579.0,3671.0
57286,1209.0,579.0,3671.0
57287,1209.0,579.0,3067.0
57288,672.0,579.0,3067.0
57289,1174.0,579.0,2517.0
57290,1174.0,579.0,2517.0
57291,1164.0,579.0,2610.0
57292,1164.0,579.0,2610.0
57293,1164.0,579.0,2610.0
57294,1164.0,579.0,2610.0
57295,1164.0,579.0,2610.0
57296,1164.0,579.0,2610.0
57297,1164.0,579.0,2610.0
57298,1164.0,579.0,2610.0
57299,1164.0,579.0,2610.0
57300,1164.0,579.0,2610.0
57301,1164.0,579.0,2610.0
57302,1164.0,579.0,2610.0
57303,1164.0,579.0,2610.0
57304,1164.0,579.0,2610.0
57305,1164.0,579.0,1512.0
57306,1164.0,579.0,3490.0
57307,1164.0,579.0,3490.0
57308,1164.0,579.0,3490.0
57309,1164.0,579.0,1593.0
57310,1164.0,579.0,1593.0
57311,1164.0,579.0,1735.0
57312,2573.0,579.0,1735.0
57313,2573.0,579.0,1735.0
57314,2573.0,579.0,2959.0
57315,2573.0,579.0,2959.0
57316,2573.0,579.0,2959.0
57317,2573.0,579.0,1093.0
57318,2573.0,579.0,1093.0
57319,1323.0,579.0,1093.0
57320,1323.0,579.0,1093.0
57321,2258.0,579.0,1093.0
57322,2258.0,579.0,2279.0
57323,2258.0,579.0,2279.0
57324,2258.0,579.0,2279.0
57325,2258.0,579.0,2279.0
57326,1226.0,579.0,3303.0
57327,1226.0,579.0,3303.0
57328,1226.0,579.0,3303.0
57329,1226.0,579.0,3303.0
57330,1226.0,579.0,3303.0
57331,1226.0,579.0,3303.0
57332,1226.0,579.0,3303.0
57333,1226.0,579.0,3303.0
57334,1226.0,579.0,3303.0
57335,1226.0,579.0,3303.0
57336,1246.0,579.0,3303.0
57337,1246.0,579.0,3303.0
57338,2244.0,579.0,2179.0
57339,2244.0,579.0,2179.0
57340,2244.0,336.0,2179.0
57341,2244.0,336.0,2179.0
57342,2244.0,336.0,2179.0
57343,2943.0,336.0,2161.0
57344,2943.0,336.0,2161.0
57345,2943.0,336.0,2161.0
57346,2943.0,336.0,2859.0
57347,2943.0,336.0,2859.0
57348,2942943.0,336.0,2871.0
57349,2943.0,1193.0,2871.0
57350,2943.0,1193.0,1469.0
57351,2943.0,1193.0,1469.0
57352,2943.0,1193.0,3010.0
57353,2943.0,1193.0,1203.0
57354,2943.0,1193.0,1203.0
57355,2943.0,1193.0,2200.0
57356,2943.0,1193.0,2200.0
57357,2943.0,851.0,2513.0
57358,2943.0,851.0,2513.0
57359,2943.0,851.0,2513.0
57360,2943.0,851.0,3136.0
57361,2943.0,851.0,3136.0
57362,2943.0,868.0,3136.0
57363,2943.0,868.0,3136.0
57364,133.0,868.0,2427.0
57365,29443.0,868.0,2627.0
57366,2150.0,868.0,2627.0
57367,2150.0,868.0,2627.0
57368,29.0,868.0,2442.0
57369,802.0,868.0,3212.0
57370,2.0,868.0,3212.0
57371,1587.0,868.0,3212.0
57372,1587.0,868.0,1702.0
57373,1088.0,868.0,1702.0
57374,2466.0,868.0,1702.0
57375,2466.0,868.0,1702.0
57376,2466.0,868.0,2798.0
57377,2466.0,868.0,2798.0
57378,2466.0,450.0,2499.0
57379,1574.0,450.0,1257.0
57380,956.0,450.0,1257.0
57381,956.0,450.0,1257.0
57382,956.0,450.0,1257.0
57383,552.0,450.0,1257.0
57384,552.0,450.0,1257.0
57385,552.0,450.0,1941.0
57386,1115.0,450.0,1039.0
57387,1115.0,450.0,1039.0
57388,1115.0,450.0,1039.0
57389,864.0,450.0,1039.0
57390,864.0,450.0,1039.0
57391,864.0,450.0,1039.0
57392,864.0,450.0,1039.0
57393,864.0,450.0,1039.0
57394,864.0,450.0,1039.0
57395,864.0,450.0,1039.0
57396,864.0,450.0,1588.0
57397,864.0,450.0,4156.0
57398,864.0,450.0,1899.0
57399,1814.0,450.0,1899.0
57400,1814.0,450.0,1899.0
57401,1814.0,450.0,4987.0
57402,1814.0,450.0,1785.0
57403,1814.0,450.0,1785.0
57404,2018.0,450.0,1785.0
57405,2018.0,450.0,1785.0
57406,2018.0,927.0,1785.0
57407,2018.0,927.0,1785.0
57408,2018.0,927.0,1712.0
58970,2219.0,1034.0,2568.0
58971,2219.0,717.0,2568.0
58972,2219.0,717.0,2568.0
58973,2219.0,717.0,2568.0
58974,2219.0,717.0,2568.0
58975,3839.0,1825.0,2568.0
58976,3839.0,1825.0,2568.0
58977,221.0,1825.0,2568.0
58978,3839.0,1825.0,2568.0
58979,3839.0,1825.0,2568.0
58980,3839.0,1825.0,2568.0
58981,3839.0,1825.0,2568.0
58982,3839.0,1825.0,2568.0
58983,3839.0,1825.0,2568.0
58984,3839.0,1825.0,2568.0
58985,1289.0,1825.0,2568.0
58986,1289.0,2486.0,2568.0
58987,1289.0,2486.0,4069.0
58988,1289.0,2486.0,4069.0
58989,1785.0,612.0,4069.0
58990,1955.0,612.0,4069.0
58991,1955.0,612.0,4069.0
58992,4998.0,612.0,4069.0
58993,4998.0,612.0,4069.0
58994,4998.0,733.0,4069.0
58995,4998.0,1151.0,4069.0
58996,4998.0,1151.0,4069.0
58997,4998.0,1151.0,4069.0
58998,4998.0,1151.0,4069.0
58999,4998.0,1072.0,4069.0
59000,4998.0,1072.0,2922.0
59001,4998.0,1072.0,2922.0
59002,4998.0,1378.0,2922.0
59003,4998.0,1378.0,2922.0
59004,4998.0,1378.0,2922.0
59005,49988.0,1378.0,2922.0
59006,499998.0,1378.0,2922.0
59007,4998.0,1378.0,2922.0
59008,4998.0,1378.0,2922.0
59009,4998.0,1378.0,2922.0
59010,4998.0,1378.0,2922.0
59011,4998.0,1378.0,2922.0
59012,4998.0,1378.0,2922.0
59013,4998.0,1693.0,2922.0
59014,4998.0,1693.0,2922.0
59015,4998.0,1693.0,2922.0
59016,4998.0,1693.0,2922.0
59017,4998.0,1693.0,2922.0
59018,4998.0,1693.0,2922.0
59019,4998.0,1693.0,2843.0
59020,4998.0,1693.0,2843.0
59021,4998.0,1749.0,2843.0
59022,2594.0,1749.0,2843.0
59023,2594.0,1749.0,2843.0
59024,2594.0,1749.0,2843.0
59025,2594.0,1749.0,2843.0
59026,2594.0,1749.0,2843.0
59027,2594.0,2257.0,2843.0
59028,1984.0,2257.0,2843.0
59029,1984.0,2257.0,2843.0
59030,1984.0,2257.0,1892.0
59031,1984.0,2257.0,1892.0
59032,1449.0,2257.0,1892.0
59033,1449.0,2257.0,1892.0
59034,3523.0,2257.0,1892.0
59035,3523.0,2257.0,1892.0
59036,3523.0,2257.0,1892.0
59037,3523.0,2257.0,1892.0
59038,3523.0,2257.0,1892.0
59039,3523.0,2257.0,1892.0
59040,3523.0,2257.0,1892.0
59041,259400.0,2257.0,1892.0
59042,3523.0,2257.0,1892.0
59043,3523.0,2257.0,2505.0
59044,3523.0,2257.0,3243.0
59045,3523.0,2257.0,3243.0
59046,3523.0,2257.0,2911.0
59047,3523.0,2257.0,2911.0
59048,352523.0,2257.0,2911.0
59049,3523.0,2257.0,2911.0
59050,3523.0,2257.0,2911.0
59051,2140.0,2257.0,2911.0
59052,2140.0,2257.0,2911.0
59053,1940.0,2257.0,1721.0
59054,1940.0,2257.0,1721.0
59055,1940.0,1381.0,1721.0
59056,1940.0,1989.0,1721.0
59057,1940.0,1989.0,1721.0
59058,1258.0,821.0,1721.0
59059,1258.0,821.0,1721.0
59060,2675.0,821.0,1721.0
59061,2886.0,821.0,1721.0
59062,2886.0,821.0,1721.0
59063,2886.0,1250.0,3433.0
59064,2886.0,1250.0,3433.0
59065,1899.0,1250.0,3433.0
59066,1899.0,1250.0,3433.0
59067,1899.0,1250.0,3433.0
59068,1899.0,1250.0,3433.0
59069,1899.0,1250.0,3433.0
59070,1899.0,1250.0,3433.0
59071,1899.0,1250.0,1871.0
59072,1501.0,1250.0,1871.0
59073,1501.0,1250.0,1871.0
59074,1501.0,1250.0,1871.0
59075,1501.0,1250.0,1871.0
59076,1501.0,1250.0,1950.0
59077,1501.0,1250.0,1950.0
59078,1501.0,1250.0,1739.0
59079,1501.0,1250.0,1739.0
59080,1989.0,1250.0,2772.0
59081,1989.0,1250.0,2772.0
59082,1989.0,3094.0,2772.0
59083,1989.0,3094.0,2772.0
59084,1989.0,3094.0,2772.0
59085,1989.0,3094.0,2772.0
59086,1989.0,3094.0,2772.0
59087,778.0,3094.0,2772.0
59088,778.0,3094.0,2772.0
59089,778.0,3094.0,2772.0
59090,778.0,3094.0,2772.0
59091,778.0,3094.0,2772.0
59092,778.0,3094.0,2772.0
59093,778.0,1428.0,2772.0
59094,778.0,1428.0,2772.0
59095,2077.0,1428.0,2772.0
59096,2077.0,1428.0,2772.0
59097,2077.0,1428.0,2500.0
59098,3705.0,1428.0,2500.0
59099,3705.0,1776.0,3899.0
59100,3705.0,1776.0,3899.0
59101,3705.0,1776.0,3899.0
59102,3705.0,1776.0,3899.0
59103,3705.0,1102.0,3899.0
59104,37003705.0,1114.0,3899.0
59105,3705.0,1114.0,3664.0
59106,863.0,1114.0,3664.0
59107,863.0,1114.0,3664.0
60765,3245.0,1803.0,3889.0
60766,3245.0,1803.0,3889.0
60767,3245.0,1803.0,3889.0
60768,3245.0,1803.0,3889.0
60769,3245.0,1803.0,3889.0
60770,3245.0,1803.0,3889.0
60771,3245.0,1803.0,3889.0
60772,3245.0,1803.0,3889.0
60773,3245.0,1803.0,3889.0
60774,3245.0,1803.0,3889.0
60775,3245.0,1393.0,3889.0
60776,3245.0,1393.0,3889.0
60777,2638.0,1393.0,3889.0
60778,2638.0,1393.0,3889.0
60779,2638.0,1393.0,3889.0
60780,2638.0,1357.0,3889.0
60781,2241.0,1357.0,3889.0
60782,41.0,1357.0,3889.0
60783,2241.0,1357.0,3889.0
60784,2698.0,1357.0,3889.0
60785,2698.0,1357.0,3889.0
60786,2698.0,1357.0,3889.0
60787,2698.0,1357.0,3889.0
60788,2698.0,1357.0,3889.0
60789,2698.0,1357.0,3889.0
60790,2698.0,1357.0,3889.0
60791,2698.0,1357.0,3889.0
60792,1817.0,1357.0,3889.0
60793,1817.0,1357.0,3889.0
60794,1817.0,817.0,965.0
60795,873.0,73.0,1412.0
62317,184.0,917.0,1051.0
62318,199.0,917.0,1051.0
62319,199.0,917.0,1051.0
62320,221.0,659.0,1051.0
62321,221.0,659.0,1051.0
62322,333.0,659.0,1051.0
62323,333.0,659.0,1033.0
62324,333.0,659.0,597.0
62325,333.0,659.0,597.0
62326,333.0,659.0,597.0
62327,333.0,659.0,597.0
62328,106.0,659.0,597.0
62329,106.0,659.0,597.0
62330,106.0,659.0,597.0
62331,275.0,659.0,597.0
62332,275.0,659.0,597.0
62333,119.0,659.0,597.0
62334,119.0,659.0,991.0
62335,119.0,659.0,991.0
62336,119.0,659.0,991.0
62337,119.0,659.0,991.0
62338,185.0,659.0,991.0
62339,185.0,659.0,991.0
62340,185.0,659.0,515.0
62341,185.0,659.0,515.0
62342,185.0,659.0,515.0
62343,185.0,659.0,515.0
62344,135.0,1400.0,515.0
62345,128.0,1400.0,515.0
62346,128.0,1400.0,515.0
62347,128.0,1400.0,515.0
62348,163.0,1400.0,515.0
62349,163.0,1400.0,515.0
62350,163.0,1400.0,515.0
62351,163.0,1400.0,515.0
62352,163.0,1400.0,515.0
62353,163.0,528.0,515.0
62354,163.0,528.0,515.0
62355,163.0,528.0,858.0
62356,163.0,528.0,858.0
62357,212.0,528.0,858.0
62358,212.0,528.0,858.0
62359,212.0,611.0,858.0
62360,212.0,611.0,858.0
62361,212.0,611.0,858.0
62362,212.0,611.0,1274.0
62363,212.0,611.0,908.0
62364,212.0,611.0,908.0
62365,212.0,611.0,1700.0
62366,212.0,611.0,1017.0
62367,212.0,611.0,1017.0
62368,212.0,611.0,397.0
62369,212.0,611.0,938.0
62370,212.0,611.0,946.0
62371,212.0,611.0,946.0
62372,212.0,611.0,1250.0
62373,212.0,611.0,1250.0
62374,361.0,611.0,1250.0
62375,361.0,611.0,1250.0
62376,361.0,611.0,1250.0
62377,361.0,611.0,1386.0
62378,361.0,1532.0,1386.0
62379,361.0,1532.0,1723.0
62380,361.0,1532.0,1547.0
62381,361.0,1532.0,1547.0
62382,361.0,1532.0,1547.0
62383,361.0,1532.0,1547.0
62384,361.0,1532.0,1547.0
62385,361.0,1532.0,1249.0
62386,361.0,1532.0,1035.0
62387,361.0,1532.0,1421.0
62388,361.0,1532.0,1421.0
62389,361.0,1532.0,1421.0
62390,751.0,1532.0,1397.0
62391,751.0,1532.0,885.0
62392,751.0,1532.0,2304.0
62393,751.0,1532.0,2304.0
62394,751.0,1532.0,957.0
62395,751.0,1532.0,957.0
62396,751.0,1532.0,957.0
62397,751.0,1532.0,957.0
62398,559.0,1532.0,957.0
62399,559.0,1532.0,733.0
62400,559.0,1532.0,1318.0
62401,559.0,1532.0,2440.0
62402,559.0,1532.0,711.0
62403,559.0,1532.0,711.0
62404,559.0,1532.0,711.0
62405,559.0,1532.0,807.0
62406,559.0,1532.0,1065.0
62407,559.0,1532.0,1065.0
62408,559.0,1532.0,1065.0
62409,559.0,1532.0,1065.0
62410,559.0,1532.0,1065.0
62411,559.0,1532.0,1065.0
62412,559.0,1532.0,1065.0
62413,559.0,1532.0,1065.0
62414,559.0,1621.0,1065.0
62415,559.0,1621.0,1065.0
62416,559.0,1601.0,1065.0
62417,559.0,1601.0,1065.0
62418,559.0,1601.0,1065.0
62419,559.0,1601.0,1065.0
62420,559.0,1601.0,1065.0
62421,559.0,1601.0,1065.0
62422,559.0,294.0,1065.0
62423,559.0,294.0,1065.0
62424,559.0,294.0,1065.0
62425,559.0,294.0,1065.0
62426,559.0,294.0,1065.0
62427,559.0,294.0,1065.0
62428,453.0,1062.0,1065.0
62429,453.0,1062.0,1660.0
62430,453.0,549.0,1660.0
62431,453.0,549.0,1660.0
62432,453.0,549.0,1365.0
62433,453.0,549.0,1365.0
62434,453.0,549.0,1365.0
62435,453.0,549.0,1200.0
62436,453.0,549.0,1200.0
62437,279.0,549.0,1200.0
62438,279.0,549.0,1672.0
62439,279.0,549.0,1097.0
62440,279.0,549.0,1922.0
62441,638.0,549.0,1922.0
62442,638.0,549.0,1922.0
62443,271.0,549.0,1922.0
62444,271.0,549.0,1922.0
62445,271.0,549.0,1922.0
62446,271.0,549.0,1922.0
62447,271.0,549.0,1922.0
62448,271.0,549.0,1922.0
62449,271.0,549.0,742.0
62450,271.0,549.0,1524.0
62451,271.0,549.0,1522.0
62452,271.0,549.0,1522.0
62453,271.0,549.0,1522.0
62454,271.0,1226.0,1522.0
62455,271.0,1226.0,1522.0
62456,271.0,1226.0,1504.0
62457,271.0,1226.0,1504.0
62458,271.0,750.0,1504.0
62459,271.0,750.0,685.0
62460,271.0,750.0,837.0
62461,271.0,750.0,837.0
62462,271.0,750.0,837.0
62463,271.0,750.0,837.0
62464,271.0,750.0,1239.0
62465,271.0,750.0,1239.0
62466,271.0,750.0,1239.0
62467,271.0,750.0,1418.0
62468,271.0,750.0,1418.0
62469,271.0,750.0,1545.0
64304,1171.0,374.0,952.0
64305,1171.0,374.0,952.0
64306,8.0,532.0,952.0
64307,1171.0,532.0,952.0
64308,1171.0,532.0,952.0
64309,1171.0,532.0,952.0
64310,1171.0,532.0,952.0
64311,1171.0,231.0,952.0
64312,1171.0,231.0,952.0
64313,1171.0,231.0,952.0
64314,1171.0,231.0,952.0
64315,1171.0,231.0,952.0
64316,1171.0,231.0,952.0
64317,1171.0,231.0,953.0
64318,1171.0,231.0,953.0
64319,1171.0,231.0,953.0
64320,801.0,244.0,953.0
64321,801.0,244.0,953.0
64322,801.0,244.0,953.0
64323,801.0,156.0,953.0
64324,801.0,253.0,953.0
64325,801.0,253.0,953.0
64326,801.0,253.0,953.0
64327,465.0,253.0,953.0
64328,465.0,253.0,953.0
64329,465.0,422.0,953.0
64330,465.0,422.0,953.0
64331,465.0,422.0,953.0
64332,465.0,422.0,953.0
64333,465.0,422.0,1287.0
64334,465.0,422.0,1287.0
64335,465.0,422.0,1287.0
64336,465.0,422.0,1287.0
64337,465.0,422.0,1287.0
64338,465.0,422.0,1287.0
64339,745.0,422.0,1287.0
64340,745.0,329.0,1287.0
64341,745.0,329.0,1287.0
64342,745.0,329.0,1287.0
64343,745.0,329.0,1287.0
64344,745.0,329.0,1287.0
64345,745.0,329.0,1287.0
64346,745.0,329.0,1287.0
64347,745.0,182.0,1287.0
64348,745.0,182.0,1287.0
64349,745.0,160.0,602.0
64350,745.0,160.0,602.0
64351,745.0,160.0,602.0
64352,745.0,402.0,602.0
64353,745.0,402.0,602.0
64354,745.0,402.0,957.0
64355,745.0,402.0,957.0
64356,902.0,344.0,399.0
64357,902.0,143.0,1417.0
64358,902.0,143.0,1193.0
64359,628.0,143.0,1193.0
64360,628.0,143.0,1193.0
64361,628.0,143.0,1193.0
64362,628.0,284.0,1193.0
64363,628.0,284.0,1193.0
64364,628.0,284.0,1193.0
64365,628.0,284.0,1193.0
64366,628.0,229.0,1193.0
64367,628.0,229.0,1193.0
64368,628.0,463.0,1193.0
64369,628.0,463.0,1193.0
64370,628.0,463.0,1439.0
64371,628.0,463.0,1439.0
64372,628.0,463.0,680.0
64373,628.0,208.0,680.0
64374,628.0,208.0,660.0
64375,628.0,259.0,660.0
64376,628.0,259.0,1127.0
64377,628.0,259.0,1127.0
64378,628.0,259.0,1028.0
64379,628.0,259.0,1028.0
64380,628.0,276.0,1028.0
64381,619.0,230.0,1028.0
64382,619.0,340.0,1028.0
64383,619.0,265.0,1028.0
64384,619.0,185.0,1028.0
64385,652.0,451.0,1028.0
64386,652.0,451.0,471.0
64387,652.0,451.0,471.0
64388,652.0,451.0,471.0
64389,652.0,451.0,471.0
64390,652.0,451.0,471.0
64391,652.0,451.0,471.0
64392,652.0,451.0,471.0
64393,652.0,451.0,471.0
64394,652.0,451.0,1921.0
64395,652.0,451.0,1921.0
64396,652.0,451.0,1921.0
64397,652.0,451.0,888.0
64398,652.0,451.0,888.0
64399,652.0,226.0,888.0
64400,652.0,226.0,888.0
64401,652.0,226.0,1271.0
64402,969.0,226.0,1271.0
64403,969.0,226.0,894.0
64404,969.0,226.0,894.0
64405,969.0,226.0,894.0
64406,969.0,347.0,894.0
64407,969.0,347.0,894.0
64408,969.0,347.0,894.0
64409,969.0,347.0,894.0
64410,969.0,309.0,894.0
64411,969.0,309.0,894.0
64412,969.0,385.0,894.0
64413,969.0,385.0,894.0
64414,969.0,385.0,894.0
64415,969.0,385.0,894.0
64416,969.0,385.0,894.0
64417,969.0,385.0,894.0
64418,969.0,385.0,894.0
64419,969.0,385.0,894.0
64420,969.0,212.0,894.0
64421,969.0,212.0,894.0
64422,969.0,288.0,894.0
64423,969.0,288.0,1254.0
64424,969.0,288.0,1254.0
64425,969.0,288.0,1254.0
64426,969.0,288.0,1254.0
64427,969.0,288.0,797.0
64428,969.0,133.0,797.0
64429,969.0,133.0,797.0
64430,969.0,251.0,797.0
64431,969.0,251.0,797.0
64432,969.0,251.0,855.0
64433,969.0,251.0,855.0
66052,197.0,1387.0,500.0
66053,197.0,1142.0,500.0
66054,197.0,1171.0,500.0
66055,197.0,1171.0,500.0
66056,197.0,1328.0,500.0
66057,197.0,1328.0,500.0
66058,197.0,1328.0,500.0
66059,197.0,1328.0,500.0
66060,197.0,847.0,500.0
66061,197.0,847.0,541.0
66062,197.0,847.0,541.0
66063,197.0,847.0,541.0
66064,122.0,847.0,901.0
66065,122.0,847.0,901.0
66066,122.0,847.0,318.0
66067,122.0,847.0,318.0
66068,122.0,847.0,318.0
66069,122.0,847.0,657.0
66070,122.0,847.0,657.0
66071,122.0,724.0,657.0
66072,122.0,724.0,657.0
66073,243.0,724.0,657.0
66074,243.0,724.0,657.0
66075,204.0,724.0,657.0
66076,204.0,724.0,657.0
66077,24.0,724.0,657.0
66078,2004.0,724.0,657.0
66079,204.0,724.0,484.0
66080,204.0,724.0,484.0
66081,204.0,724.0,484.0
66082,204.0,724.0,484.0
66083,204.0,724.0,484.0
66084,204.0,724.0,484.0
66085,204.0,724.0,814.0
66086,204.0,724.0,814.0
66087,204.0,724.0,814.0
66088,204.0,724.0,814.0
66089,204.0,724.0,552.0
66090,204.0,724.0,509.0
66091,204.0,724.0,509.0
66092,204.0,724.0,509.0
66093,204.0,724.0,509.0
66094,204.0,724.0,509.0
66095,204.0,724.0,509.0
66096,204.0,724.0,509.0
66097,204.0,724.0,509.0
66098,204.0,724.0,509.0
66099,204.0,724.0,923.0
66100,204.0,724.0,923.0
66101,204.0,724.0,439.0
66102,204.0,724.0,439.0
66103,204.0,724.0,439.0
66104,204.0,503.0,439.0
66105,204.0,503.0,439.0
66106,204.0,503.0,439.0
66107,204.0,1000.0,439.0
66108,204.0,1000.0,439.0
66109,204.0,1000.0,439.0
66110,204.0,284.0,439.0
66111,159.0,692.0,439.0
66112,159.0,692.0,439.0
66113,273.0,692.0,439.0
66114,268.0,692.0,439.0
66115,268.0,692.0,439.0
66116,268.0,692.0,439.0
66117,268.0,692.0,439.0
66118,268.0,692.0,752.0
66119,294.0,692.0,752.0
66120,148.0,692.0,752.0
66121,209.0,692.0,752.0
66122,209.0,704.0,752.0
66123,209.0,704.0,752.0
66124,209.0,704.0,752.0
66125,209.0,704.0,752.0
66126,209.0,704.0,752.0
66127,209.0,479.0,752.0
66128,209.0,479.0,752.0
66129,137.0,1191.0,752.0
66130,137.0,1191.0,752.0
66131,137.0,1191.0,752.0
66132,137.0,1191.0,752.0
66133,13137.0,1191.0,752.0
66134,106.0,1191.0,752.0
66135,106.0,1191.0,752.0
66136,80.0,1191.0,752.0
66137,80.0,1191.0,752.0
66138,80.0,1191.0,752.0
66139,80.0,1191.0,752.0
66140,80.0,1191.0,752.0
66141,80.0,1191.0,752.0
66142,133.0,1191.0,752.0
66143,232.0,1191.0,752.0
66144,228.0,1191.0,752.0
66145,228.0,1191.0,752.0
66146,228.0,1191.0,752.0
66147,191.0,1191.0,752.0
66148,255.0,1191.0,752.0
66149,110.0,871.0,752.0
66150,110.0,871.0,752.0
66151,110.0,1473.0,752.0
66152,110.0,1473.0,752.0
66153,110.0,1473.0,752.0
66154,110.0,1473.0,752.0
66155,110.0,1473.0,1011.0
66156,110.0,1473.0,1011.0
66157,110.0,1508.0,1011.0
66158,110.0,1508.0,681.0
66159,110.0,1508.0,681.0
66160,110.0,900.0,681.0
66161,1110.0,880.0,681.0
66162,110.0,880.0,793.0
66163,110.0,880.0,793.0
66164,110.0,880.0,793.0
66165,110.0,880.0,793.0
66166,110.0,905.0,793.0
66167,110.0,905.0,793.0
66168,307.0,905.0,793.0
66169,307.0,905.0,793.0
66170,307.0,905.0,793.0
66171,307.0,905.0,793.0
66172,307.0,1140.0,793.0
66173,307.0,1140.0,793.0
66174,307.0,1140.0,793.0
66175,307.0,1140.0,586.0
66176,307.0,1140.0,586.0
66177,307.0,1140.0,586.0
66178,307.0,1140.0,586.0
66179,307.0,1140.0,586.0
