timestamp,emg1,emg2,emg3
825,3948.0,2387.0,3700.0
826,3948.0,2299.0,3700.0
827,3948.0,3726.0,2374.0
828,3948.0,1493.0,2374.0
829,3948.0,1493.0,2374.0
830,3948.0,1493.0,2374.0
831,3948.0,1493.0,2374.0
832,3948.0,1493.0,2374.0
833,3948.0,1493.0,2374.0
834,3948.0,1493.0,2374.0
835,3948.0,3374.0,2374.0
836,3948.0,3124.0,2374.0
837,3948.0,3215.0,2374.0
838,3948.0,3557.0,2374.0
839,3948.0,3557.0,2374.0
840,3948.0,3557.0,4801.0
841,3948.0,3557.0,4801.0
842,3948.0,3557.0,4801.0
843,3948.0,3809.0,5767.0
844,3948.0,3809.0,5421.0
845,3948.0,3396.0,5421.0
846,3948.0,1717.0,5421.0
847,5449.0,1717.0,5421.0
848,5449.0,1717.0,5421.0
849,3.0,1717.0,5421.0
850,4457.0,1717.0,5421.0
851,8900.0,1717.0,3253.0
852,8900.0,1717.0,3253.0
853,8900.0,1717.0,3253.0
854,8900.0,1717.0,3253.0
855,8900.0,1717.0,3253.0
856,8900.0,1717.0,3253.0
857,5312.0,1717.0,3253.0
858,5312.0,1717.0,3253.0
859,5312.0,1717.0,3253.0
860,5312.0,1717.0,3253.0
861,5312.0,1717.0,3253.0
862,42.0,1717.0,3253.0
863,53112.0,1717.0,3253.0
864,5312.0,1717.0,3253.0
865,5312.0,1717.0,3253.0
866,5312.0,1717.0,3253.0
867,5312.0,1717.0,3253.0
868,5312.0,1717.0,3253.0
869,5312.0,1717.0,3253.0
870,5312.0,1717.0,3253.0
871,5312.0,1717.0,3253.0
872,5312.0,1717.0,3253.0
873,5312.0,1717.0,3253.0
874,5312.0,1717.0,3253.0
875,5312.0,1717.0,3253.0
876,3254.0,1717.0,3253.0
877,8406.0,1717.0,3556.0
878,4665.0,1717.0,3556.0
879,4665.0,1717.0,3556.0
880,4665.0,1717.0,3556.0
881,4665.0,1717.0,3556.0
882,4665.0,1717.0,3556.0
883,4665.0,1717.0,3556.0
884,3283.0,1717.0,3556.0
885,3283.0,1717.0,3556.0
886,3283.0,2136.0,3556.0
887,3283.0,2136.0,3556.0
888,3283.0,2136.0,3556.0
889,3283.0,2136.0,3689.0
890,3283.0,2136.0,3689.0
891,3283.0,3719.0,3689.0
892,3283.0,3719.0,5764.0
893,3283.0,3719.0,5764.0
894,3283.0,3719.0,2707.0
895,3283.0,3719.0,2707.0
896,3596.0,3719.0,2707.0
897,3596.0,3719.0,2707.0
898,3596.0,3719.0,2707.0
899,3596.0,3719.0,2707.0
900,3596.0,3719.0,2707.0
901,3596.0,3700.0,2707.0
902,3596.0,3700.0,2746.0
903,3596.0,3700.0,2746.0
904,3596.0,3700.0,2746.0
905,3596.0,3700.0,2746.0
906,3596.0,3700.0,5243.0
907,3596.0,3700.0,6398.0
908,3596.0,3700.0,6398.0
909,3596.0,3700.0,6398.0
910,3596.0,3700.0,6398.0
911,3596.0,3700.0,6398.0
912,3596.0,2333.0,6398.0
913,3596.0,2333.0,6398.0
914,3596.0,2333.0,6398.0
915,3596.0,2333.0,2751.0
916,3596.0,2333.0,2845.0
917,3596.0,2333.0,2845.0
918,3596.0,2333.0,4192.0
919,3596.0,2333.0,6404.0
920,3596.0,2333.0,6404.0
921,3596.0,2799.0,6404.0
922,3596.0,2454.0,6404.0
923,3596.0,2720.0,6404.0
924,3596.0,3135.0,6404.0
925,3596.0,3135.0,6404.0
926,3596.0,3135.0,3790.0
927,3596.0,3135.0,3790.0
928,3596.0,3135.0,3790.0
929,3596.0,3135.0,3790.0
930,3596.0,3135.0,3790.0
931,3596.0,1620.0,3790.0
932,3596.0,1620.0,3790.0
933,3596.0,1620.0,3790.0
934,3596.0,1620.0,4248.0
935,3596.0,1620.0,4248.0
936,3596.0,1620.0,5084.0
937,3596.0,1620.0,5084.0
938,3596.0,1620.0,5084.0
939,4294.0,1620.0,5084.0
940,4294.0,1620.0,5084.0
941,4294.0,2714.0,5084.0
942,4294.0,2714.0,5084.0
943,5551.0,2714.0,5084.0
944,5551.0,2714.0,5084.0
945,5551.0,2179.0,5084.0
946,5551.0,4111.0,5084.0
947,5551.0,4111.0,5084.0
948,555151.0,4111.0,4969.0
949,5551.0,4111.0,4969.0
950,5551.0,4111.0,1494.0
951,5551.0,4111.0,1494.0
952,5500.0,1578.0,1494.0
953,5551.0,1578.0,1494.0
954,5551.0,2550.0,1494.0
955,5551.0,2550.0,1494.0
956,5551.0,2550.0,3950.0
957,5551.0,1067.0,3950.0
958,5551.0,2400.0,3950.0
959,5551.0,2400.0,3950.0
2673,3479.0,2447.0,1920.0
2674,3479.0,5016.0,1920.0
2675,3479.0,5016.0,720.0
2676,3479.0,5016.0,720.0
2677,3479.0,5016.0,720.0
2678,3479.0,5016.0,2543.0
2679,3479.0,5016.0,2543.0
2680,5349.0,5016.0,2543.0
2681,5349.0,5016.0,2543.0
2682,5349.0,4259.0,2543.0
2683,5349.0,4259.0,2543.0
2684,5349.0,4259.0,2543.0
2685,5349.0,4259.0,2543.0
2686,5349.0,2029.0,2831.0
2687,5349.0,3004.0,2831.0
2688,5349.0,1763.0,2831.0
2689,5349.0,1763.0,2831.0
2690,4229.0,1763.0,2831.0
2691,4229.0,1763.0,2831.0
2692,53.0,1763.0,2831.0
2693,4229.0,1763.0,2831.0
2694,4229.0,1763.0,2831.0
2695,4229.0,1763.0,2808.0
2696,4229.0,1763.0,2808.0
2697,4229.0,1763.0,2808.0
2698,4229.0,5327.0,2808.0
2699,4229.0,5327.0,2808.0
2700,4593.0,5327.0,2808.0
2701,4593.0,5327.0,2808.0
2702,4593.0,5327.0,2808.0
2703,4593.0,6745.0,2808.0
2704,4593.0,6745.0,2808.0
2705,3195.0,6745.0,2808.0
2706,319595.0,6745.0,2808.0
2707,3195.0,6745.0,2808.0
2708,7306.0,1474.0,2808.0
2709,7306.0,1474.0,2808.0
2710,7306.0,1474.0,2808.0
2711,7306.0,1474.0,2808.0
2712,7306.0,1474.0,2651.0
2713,7306.0,1474.0,2134.0
2714,7306.0,1474.0,2945.0
2715,7306.0,1474.0,2945.0
2716,7306.0,1474.0,2553.0
2717,7306.0,1474.0,2553.0
2718,6127.0,1474.0,2553.0
2719,6127.0,5790.0,2346.0
2720,6127.0,5790.0,2346.0
2721,6127.0,5790.0,2346.0
2722,6127.0,5790.0,2346.0
2723,6127.0,5790.0,2346.0
2724,6127.0,5790.0,2346.0
2725,6127.0,5790.0,2346.0
2726,8238.0,5790.0,2346.0
2727,8238.0,5790.0,2346.0
2728,8238.0,5790.0,2346.0
2729,8238.0,5790.0,2346.0
2730,8238.0,5790.0,1388.0
2731,8238.0,5790.0,1388.0
2732,8238.0,5790.0,1970.0
2733,8238.0,5790.0,1993.0
2734,8238.0,5790.0,2017.0
2735,8238.0,5790.0,2017.0
2736,8238.0,5790.0,2017.0
2737,1864.0,5790.0,2017.0
2738,1864.0,5790.0,2017.0
2739,1864.0,5790.0,2017.0
2740,5498.0,5790.0,2017.0
2741,5498.0,5790.0,2017.0
2742,5498.0,5790.0,2017.0
2743,5498.0,5790.0,2017.0
2744,5498.0,3561.0,2017.0
2745,5498.0,3561.0,2017.0
2746,3207.0,3561.0,2017.0
2747,3207.0,3561.0,2017.0
2748,2393.0,3561.0,2017.0
2749,2393.0,3561.0,2017.0
2750,4435.0,3561.0,2017.0
2751,4435.0,3561.0,2017.0
2752,4679.0,3561.0,2017.0
2753,4679.0,3561.0,2017.0
2754,5875.0,3561.0,2017.0
2755,5875.0,3561.0,2017.0
2756,5875.0,3561.0,5023.0
2757,5875.0,3561.0,3534.0
2758,5875.0,3561.0,3534.0
2759,5875.0,3561.0,3534.0
2760,5875.0,3561.0,3534.0
2761,5875.0,4406.0,3534.0
2762,5875.0,4406.0,3534.0
2763,5875.0,4406.0,2727.0
2764,5875.0,4406.0,2727.0
2765,5875.0,4406.0,2727.0
2766,5875.0,4406.0,2727.0
2767,5875.0,2922.0,2727.0
2768,5875.0,2922.0,2727.0
2769,5875.0,4205.0,2727.0
2770,5875.0,4638.0,2727.0
2771,5875.0,4638.0,2727.0
2772,5875.0,4638.0,2727.0
2773,5875.0,4638.0,2727.0
2774,5875.0,4638.0,2727.0
2775,5875.0,2124.0,2727.0
2776,5875.0,3483.0,2727.0
2777,5875.0,4364.0,2727.0
2778,4248.0,4364.0,2727.0
2779,4248.0,3624.0,2727.0
2780,4248.0,1939.0,2727.0
2781,4248.0,1939.0,2727.0
2782,4248.0,1939.0,2727.0
2783,4248.0,1939.0,5782.0
2784,4248.0,1939.0,5782.0
2785,4248.0,1939.0,5782.0
2786,4248.0,3009.0,5782.0
2787,4248.0,6660.0,5782.0
2788,4248.0,6660.0,5782.0
2789,820.0,3169.0,5782.0
2790,4248.0,3169.0,5782.0
2791,4248.0,3169.0,5782.0
2792,4248.0,3169.0,2475.0
2793,4248.0,2796.0,2475.0
2794,4248.0,2796.0,2475.0
2795,4248.0,2796.0,2475.0
2796,4248.0,2271.0,2475.0
2797,4248.0,2271.0,2475.0
2798,4248.0,2271.0,2475.0
2799,4248.0,2271.0,2327.0
2800,2575.0,2271.0,2327.0
2801,2575.0,2271.0,2327.0
2802,2575.0,2271.0,2327.0
2803,2575.0,3453.0,2327.0
2804,2575.0,3453.0,2327.0
2805,2575.0,3453.0,2327.0
2806,2575.0,3453.0,2327.0
2807,2575.0,3453.0,2239.0
2808,2575.0,3453.0,2239.0
2809,2575.0,3453.0,2239.0
3652,1095.0,325095.0,3252.0
4259,700.0,8530.0,853.0
4260,1595.0,1964595.0,1964.0
4261,1486.0,1486.0,3187.0
5712,3115.0,938.0,5741.0
5713,3115.0,743.0,5328.0
5714,3115.0,743.0,4637.0
5715,3115.0,743.0,4637.0
5716,3115.0,743.0,4637.0
5717,3115.0,743.0,4637.0
5718,3115.0,743.0,4637.0
5719,3115.0,743.0,4637.0
5720,3115.0,701.0,4637.0
5721,3115.0,701.0,4637.0
5722,796.0,891.0,4637.0
5723,796.0,891.0,4637.0
5724,796.0,891.0,5009.0
5725,796.0,891.0,5009.0
5726,796.0,891.0,5009.0
5727,796.0,671.0,5009.0
5728,796.0,671.0,2542.0
5729,796.0,671.0,2542.0
5730,796.0,671.0,2542.0
5731,796.0,671.0,2542.0
5732,868.0,671.0,2542.0
5733,868.0,671.0,2542.0
5734,868.0,671.0,2542.0
5735,7.0,671.0,4018.0
5736,86868.0,671.0,4018.0
5737,868.0,671.0,4018.0
5738,868.0,671.0,4018.0
5739,868.0,671.0,4018.0
5740,868.0,671.0,2231.0
5741,868.0,671.0,2231.0
5742,868.0,671.0,1570.0
5743,868.0,671.0,1570.0
5744,868.0,671.0,1570.0
5745,1702.0,671.0,1570.0
5746,1702.0,671.0,1570.0
5747,1702.0,671.0,1714.0
5748,1702.0,671.0,1714.0
5749,1702.0,671.0,1714.0
5750,1702.0,671.0,1714.0
5751,2099.0,671.0,1714.0
5752,2099.0,671.0,1714.0
5753,2099.0,671.0,1714.0
5754,2099.0,671.0,1714.0
5755,1026.0,671.0,1714.0
5756,1026.0,671.0,1714.0
5757,1026.0,671.0,1714.0
5758,1026.0,671.0,1714.0
5759,1026.0,671.0,1714.0
5760,1026.0,671.0,1714.0
5761,1026.0,671.0,1714.0
5762,1026.0,671.0,1714.0
5763,1026.0,671.0,1714.0
5764,1695.0,671.0,1714.0
5765,1695.0,671.0,1714.0
5766,1695.0,671.0,1714.0
5767,1695.0,671.0,1714.0
5768,1695.0,671.0,1714.0
5769,1578.0,671.0,1714.0
5770,1578.0,671.0,1714.0
5771,1578.0,671.0,1714.0
5772,1578.0,852.0,1714.0
5773,1578.0,852.0,1714.0
5774,1578.0,852.0,1714.0
5775,1578.0,852.0,1714.0
5776,1578.0,852.0,1798.0
5777,1578.0,852.0,1798.0
5778,1578.0,852.0,1798.0
5779,1578.0,799.0,1798.0
5780,1578.0,1428.0,1798.0
5781,1578.0,1428.0,1798.0
5782,1578.0,1428.0,1798.0
5783,1578.0,1428.0,2490.0
5784,1578.0,725.0,2490.0
5785,1578.0,616.0,2490.0
5786,1578.0,470.0,2490.0
5787,1578.0,470.0,2490.0
5788,1578.0,470.0,2490.0
5789,1578.0,470.0,2490.0
5790,1578.0,470.0,2490.0
5791,1578.0,470.0,2490.0
5792,1578.0,470.0,2490.0
5793,1578.0,470.0,2490.0
5794,1578.0,470.0,2490.0
5795,1578.0,470.0,2490.0
5796,1578.0,470.0,2490.0
5797,1607.0,470.0,2490.0
5798,1607.0,470.0,2429.0
5799,1607.0,470.0,2429.0
5800,1607.0,470.0,2429.0
5801,1607.0,470.0,2429.0
5802,1486.0,883.0,2429.0
5803,1486.0,883.0,2429.0
5804,1486.0,883.0,2429.0
5805,1486.0,883.0,2429.0
5806,1486.0,692.0,2429.0
5807,1706.0,692.0,2429.0
5808,1706.0,692.0,2429.0
5809,1706.0,692.0,2429.0
5810,1706.0,692.0,4124.0
5811,1706.0,692.0,4124.0
5812,1706.0,1080.0,4124.0
5813,1706.0,557.0,4124.0
5814,1706.0,557.0,4124.0
5815,2071.0,764.0,4124.0
5816,2071.0,750.0,4124.0
5817,2071.0,552.0,4124.0
5818,2071.0,552.0,4124.0
5819,117174.0,552.0,4124.0
5820,1174.0,758.0,4124.0
5821,1174.0,758.0,4124.0
5822,1174.0,1227.0,2713.0
5823,1174.0,1227.0,2713.0
5824,1174.0,567.0,2713.0
5825,1174.0,1385.0,2713.0
5826,1174.0,1385.0,2713.0
5827,994.0,1385.0,2713.0
5828,2463.0,1385.0,2713.0
5829,2463.0,1385.0,2713.0
5830,2463.0,1385.0,2713.0
5831,2463.0,1385.0,2713.0
5832,2463.0,1385.0,2713.0
5833,2463.0,1385.0,2713.0
5834,2463.0,1385.0,2713.0
5835,2463.0,1385.0,2773.0
5836,2463.0,1385.0,2773.0
5837,2463.0,1385.0,2773.0
5838,204463.0,567.0,2773.0
5839,22463.0,567.0,2773.0
5840,2463.0,608.0,2773.0
5841,2463.0,608.0,2773.0
5842,2463.0,608.0,2773.0
5843,2463.0,608.0,2773.0
7572,563.0,1451.0,3861.0
7573,563.0,1451.0,3861.0
7574,546.0,1451.0,3861.0
7575,546.0,1451.0,3861.0
7576,546.0,1451.0,3861.0
7577,546.0,1451.0,3861.0
7578,546.0,1451.0,3861.0
7579,546.0,1451.0,3950.0
7580,358.0,1451.0,3950.0
7581,323.0,1451.0,3950.0
7582,323.0,1915.0,3950.0
7583,290.0,1915.0,1461.0
7584,290.0,1915.0,1461.0
7585,290.0,1915.0,1461.0
7586,290.0,1915.0,2676.0
7587,290.0,1915.0,3091.0
7588,290.0,1915.0,3091.0
7589,304.0,1915.0,3091.0
7590,304.0,1915.0,3091.0
7591,304.0,1915.0,3091.0
7592,304.0,1915.0,3091.0
7593,304.0,1915.0,3749.0
7594,304.0,1915.0,3749.0
7595,304.0,1915.0,3749.0
7596,304.0,1915.0,3749.0
7597,304.0,1915.0,3749.0
7598,304.0,1915.0,3749.0
7599,726.0,1915.0,3749.0
7600,726.0,1915.0,2248.0
7601,726.0,659.0,2248.0
7602,726.0,659.0,2248.0
7603,726.0,1222.0,2248.0
7604,726.0,1222.0,2248.0
7605,726.0,1222.0,2248.0
7606,726.0,1222.0,2248.0
7607,726.0,1257.0,2248.0
7608,726.0,1257.0,2248.0
7609,726.0,1257.0,5387.0
7610,726.0,1257.0,5387.0
7611,726.0,716.0,5387.0
7612,7200.0,716.0,5387.0
7613,813.0,930.0,5387.0
7614,813.0,930.0,5387.0
7615,813.0,930.0,5387.0
7616,813.0,930.0,5387.0
7617,813.0,930.0,5387.0
7618,813.0,930.0,5387.0
7619,813.0,930.0,5387.0
7620,813.0,1226.0,5387.0
7621,13.0,1226.0,5387.0
7622,813.0,1234.0,5387.0
7623,813.0,1234.0,5387.0
7624,813.0,1234.0,2370.0
7625,813.0,1234.0,2370.0
7626,813.0,1234.0,1935.0
7627,813.0,1234.0,1935.0
7628,813.0,1234.0,2947.0
7629,813.0,1234.0,2947.0
7630,813.0,1234.0,2947.0
7631,818.0,1234.0,2947.0
7632,8133.0,1234.0,2947.0
7633,813.0,1234.0,2947.0
7634,813.0,1234.0,2947.0
7635,813.0,1234.0,2947.0
7636,813.0,1234.0,2947.0
7637,813.0,1234.0,2947.0
7638,813.0,1234.0,2947.0
7639,813.0,1153.0,2947.0
7640,813.0,2841.0,2947.0
7641,813.0,882.0,2947.0
7642,813.0,882.0,2947.0
7643,813.0,882.0,2947.0
7644,813.0,882.0,2947.0
7645,813.0,882.0,2947.0
7646,813.0,882.0,2947.0
7647,8168.0,3439.0,2947.0
7648,4468.0,3439.0,2947.0
7649,8.0,1103.0,2947.0
7650,4668.0,1764.0,2947.0
7651,468.0,1764.0,2947.0
7652,468.0,2888.0,2947.0
7653,468.0,2888.0,2947.0
7654,468.0,1827.0,2947.0
7655,468.0,1887.0,2947.0
7656,468.0,1887.0,2947.0
7657,468.0,1533.0,2947.0
7658,468.0,1533.0,2947.0
7659,468.0,1533.0,2947.0
7660,468.0,1446.0,2947.0
7661,468.0,1446.0,2947.0
7662,468.0,1446.0,2947.0
7663,468.0,2048.0,2947.0
7664,468.0,2048.0,2947.0
7665,468.0,2048.0,2947.0
7666,468.0,2048.0,2947.0
7667,468.0,889.0,2947.0
7668,468.0,889.0,2947.0
7669,468.0,889.0,2947.0
7670,468.0,1633.0,2947.0
7671,68.0,1633.0,2947.0
7672,464468.0,1633.0,2947.0
7673,468.0,1633.0,2947.0
7674,1141.0,595.0,2947.0
7675,1141.0,595.0,2947.0
7676,528.0,1519.0,2947.0
7677,528.0,1519.0,2947.0
7678,528.0,1519.0,2947.0
7679,528.0,1882.0,2947.0
7680,307.0,1882.0,2947.0
7681,307.0,1882.0,2947.0
7682,307.0,765.0,2947.0
7683,307.0,765.0,2947.0
7684,307.0,765.0,1828.0
7685,307.0,927.0,1828.0
7686,307.0,1554.0,1828.0
7687,307.0,1554.0,1828.0
7688,307.0,1755.0,1828.0
7689,307.0,1755.0,6487.0
7690,307.0,1579.0,6487.0
7691,307.0,1579.0,6487.0
7692,307.0,1579.0,6487.0
7693,307.0,1579.0,6487.0
7694,307.0,1579.0,6487.0
7695,307.0,1513.0,6487.0
7696,307.0,1513.0,6487.0
7697,307.0,1513.0,6487.0
7698,307.0,1513.0,6487.0
7699,307.0,1513.0,6487.0
7700,307.0,1513.0,6487.0
7701,307.0,1513.0,6487.0
7702,1059.0,1513.0,6487.0
7703,1059.0,1513.0,6487.0
7704,1059.0,1513.0,6487.0
7705,1059.0,1674.0,6487.0
7706,1059.0,1674.0,6487.0
7707,1059.0,1674.0,6487.0
7708,1059.0,1674.0,6487.0
7709,1059.0,1674.0,6487.0
7710,1059.0,1674.0,6487.0
9301,30.0,547.0,256.0
9302,724.0,547.0,256.0
9303,724.0,547.0,256.0
9304,475.0,547.0,256.0
9305,282.0,547.0,256.0
9306,282.0,547.0,282.0
9307,282.0,547.0,282.0
9308,390.0,547.0,282.0
9309,390.0,547.0,282.0
9310,294.0,547.0,1216.0
9311,294.0,547.0,632.0
9312,294.0,547.0,632.0
9313,540.0,547.0,632.0
9314,540.0,547.0,632.0
9315,540.0,547.0,632.0
9316,540.0,547.0,632.0
9317,540.0,547.0,955.0
9318,540.0,547.0,955.0
9319,540.0,547.0,955.0
9320,540.0,248.0,955.0
9321,540.0,248.0,955.0
9322,540.0,248.0,1653.0
9323,540.0,248.0,1653.0
9324,2820.0,248.0,1653.0
9325,54209.0,248.0,1653.0
9326,209.0,248.0,1653.0
9327,209.0,248.0,1653.0
9328,209.0,248.0,1653.0
9329,209.0,248.0,1653.0
9330,209.0,248.0,1653.0
9331,209.0,248.0,1653.0
9332,209.0,248.0,1653.0
9333,209.0,248.0,1653.0
9334,209.0,248.0,1653.0
9335,209.0,248.0,1653.0
9336,209.0,248.0,1653.0
9337,462.0,248.0,1653.0
9338,544.0,248.0,1653.0
9339,544.0,248.0,1653.0
9340,544.0,248.0,1653.0
9341,544.0,248.0,1653.0
9342,544.0,248.0,1653.0
9343,544.0,248.0,1653.0
9344,544.0,248.0,1653.0
9345,544.0,248.0,1653.0
9346,544.0,270.0,1653.0
9347,544.0,168.0,869.0
9348,544.0,168.0,869.0
9349,50.0,168.0,869.0
9350,544.0,168.0,869.0
9351,544.0,168.0,869.0
9352,544.0,168.0,903.0
9353,544.0,168.0,1823.0
9354,544.0,298.0,1823.0
9355,544.0,298.0,1823.0
9356,544.0,321.0,1823.0
9357,544.0,321.0,1823.0
9358,544.0,321.0,1823.0
9359,544.0,321.0,1823.0
9360,544.0,321.0,1823.0
9361,544.0,321.0,1823.0
9362,544.0,321.0,1823.0
9363,575.0,321.0,1823.0
9364,575.0,321.0,1823.0
9365,575.0,321.0,1823.0
9366,575.0,321.0,1823.0
9367,162.0,281.0,1823.0
9368,366.0,281.0,1823.0
9369,366.0,230.0,1823.0
9370,366.0,230.0,1823.0
9371,54.0,30.0,1823.0
9372,676.0,230.0,1823.0
9373,676.0,101.0,1823.0
9374,676.0,101.0,1823.0
9375,676.0,101.0,1823.0
9376,676.0,101.0,1823.0
9377,238.0,235.0,1823.0
9378,238.0,235.0,1823.0
9379,238.0,235.0,1823.0
9380,238.0,235.0,1823.0
9381,238.0,235.0,1075.0
9382,238.0,235.0,1075.0
9383,238.0,235.0,819.0
9384,238.0,235.0,1808.0
9385,238.0,235.0,1808.0
9386,238.0,235.0,1808.0
9387,238.0,728.0,1808.0
9388,238.0,728.0,1808.0
9389,238.0,728.0,1808.0
9390,238.0,728.0,1808.0
9391,238.0,728.0,1071.0
9392,238.0,295.0,1071.0
9393,238.0,295.0,1071.0
9394,238.0,295.0,1071.0
9395,238.0,295.0,1071.0
9396,238.0,295.0,1071.0
9397,238.0,295.0,1071.0
9398,238.0,295.0,1361.0
9399,238.0,295.0,1361.0
9400,238.0,295.0,1435.0
9401,238.0,334.0,1435.0
9402,238.0,334.0,1435.0
9403,315.0,334.0,1435.0
9404,315.0,334.0,1435.0
9405,315.0,334.0,769.0
9406,315.0,244.0,769.0
9407,315.0,244.0,769.0
9408,315.0,244.0,769.0
9409,315.0,146.0,769.0
9410,315.0,146.0,424.0
9411,315.0,146.0,424.0
9412,315.0,146.0,424.0
9413,315.0,146.0,424.0
9414,315.0,146.0,424.0
9415,315.0,146.0,424.0
9416,315.0,338.0,424.0
9417,315.0,338.0,424.0
9418,315.0,338.0,424.0
9419,315.0,418.0,424.0
9420,315.0,418.0,424.0
9421,315.0,418.0,677.0
9422,315.0,418.0,677.0
9423,427.0,418.0,677.0
9424,427.0,418.0,677.0
9425,427.0,418.0,677.0
9426,427.0,418.0,348.0
9427,427.0,257.0,348.0
9428,427.0,257.0,348.0
9429,427.0,257.0,348.0
9430,427.0,257.0,348.0
9431,427.0,257.0,348.0
9432,27.0,257.0,348.0
11232,225.0,84.0,552.0
11233,225.0,153.0,552.0
11234,225.0,153.0,552.0
11235,225.0,153.0,1411.0
11236,225.0,153.0,1766.0
11237,225.0,153.0,1766.0
11238,225.0,153.0,1766.0
11239,225.0,153.0,480.0
11240,225.0,153.0,480.0
11241,317.0,153.0,480.0
11242,317.0,153.0,480.0
11243,681.0,153.0,480.0
11244,681.0,153.0,480.0
11245,240.0,153.0,480.0
11246,240.0,184.0,480.0
11247,240.0,184.0,480.0
11248,240.0,184.0,480.0
11249,240.0,184.0,480.0
11250,240.0,184.0,480.0
11251,240.0,184.0,480.0
11252,240.0,184.0,480.0
11253,240.0,184.0,480.0
11254,240.0,226.0,480.0
11255,240.0,226.0,480.0
11256,470.0,226.0,480.0
11257,368.0,226.0,480.0
11258,304.0,226.0,480.0
11259,304.0,226.0,480.0
11260,304.0,226.0,847.0
11261,304.0,226.0,1416.0
11262,304.0,226.0,735.0
11263,304.0,226.0,735.0
11264,582.0,226.0,735.0
11265,582.0,226.0,1609.0
11266,582.0,226.0,1609.0
11267,582.0,226.0,1609.0
11268,582.0,226.0,1609.0
11269,582.0,226.0,856.0
11270,582.0,226.0,856.0
11271,582.0,276.0,856.0
11272,582.0,290.0,856.0
11273,582.0,290.0,856.0
11274,582.0,548.0,856.0
11275,582.0,548.0,856.0
11276,300.0,548.0,856.0
11277,300.0,696.0,856.0
11278,300.0,420.0,856.0
11279,300.0,420.0,856.0
11280,300.0,420.0,856.0
11281,300.0,280.0,856.0
11282,300.0,280.0,856.0
11283,300.0,280.0,856.0
11284,300.0,280.0,856.0
11285,300.0,353.0,856.0
11286,300.0,353.0,856.0
11287,300.0,353.0,856.0
11288,300.0,307.0,856.0
11289,300.0,307.0,856.0
11290,300.0,318.0,856.0
11291,300.0,318.0,856.0
11292,300.0,318.0,856.0
11293,300.0,318.0,856.0
11294,300.0,318.0,856.0
11295,308.0,318.0,856.0
11296,308.0,318.0,856.0
11297,308.0,318.0,856.0
11298,308.0,318.0,856.0
11299,626.0,318.0,856.0
11300,626.0,318.0,856.0
11301,626.0,223.0,856.0
11302,626.0,223.0,856.0
11303,626.0,220.0,856.0
11304,181.0,220.0,856.0
11305,181.0,220.0,856.0
11306,188.0,220.0,856.0
11307,188.0,220.0,856.0
11308,188.0,220.0,856.0
11309,188.0,220.0,856.0
11310,188.0,220.0,856.0
11311,18888.0,220.0,856.0
11312,58.0,220.0,856.0
11313,188.0,220.0,856.0
11314,188.0,249.0,856.0
11315,188.0,249.0,856.0
11316,188.0,249.0,856.0
11317,188.0,249.0,856.0
11318,225.0,249.0,856.0
11319,225.0,249.0,856.0
11320,225.0,115.0,856.0
11321,225.0,115.0,856.0
11322,225.0,115.0,856.0
11323,225.0,297.0,856.0
11324,225.0,297.0,856.0
11325,225.0,297.0,856.0
11326,225.0,348.0,856.0
11327,225.0,127.0,856.0
11328,225.0,127.0,856.0
11329,488.0,127.0,856.0
11330,488.0,374.0,856.0
11331,488.0,226.0,856.0
11332,488.0,226.0,839.0
11333,488.0,226.0,605.0
11334,488.0,226.0,605.0
11335,350.0,226.0,605.0
11336,246.0,226.0,605.0
11337,246.0,226.0,605.0
11338,246.0,226.0,605.0
11339,246.0,226.0,605.0
11340,246.0,226.0,605.0
11341,246.0,232.0,605.0
11342,309.0,232.0,605.0
11343,386.0,232.0,605.0
11344,386.0,232.0,605.0
11345,386.0,302.0,605.0
11346,386.0,302.0,605.0
11347,386.0,302.0,605.0
11348,386.0,302.0,605.0
11349,386.0,302.0,605.0
11350,386.0,302.0,605.0
11351,386.0,302.0,605.0
11352,386.0,302.0,605.0
11353,386.0,302.0,605.0
11354,460.0,302.0,959.0
11355,460.0,486.0,959.0
11356,460.0,486.0,959.0
11357,460.0,486.0,959.0
11358,460.0,174.0,959.0
11359,355.0,174.0,959.0
11360,355.0,174.0,959.0
11361,508.0,174.0,542.0
11362,508.0,174.0,542.0
11363,508.0,328.0,542.0
11364,376.0,328.0,542.0
11365,688.0,328.0,542.0
11366,688.0,328.0,542.0
11367,688.0,328.0,542.0
11368,688.0,328.0,542.0
11369,82.0,328.0,729.0
11370,395.0,328.0,729.0
11371,649.0,328.0,729.0
11372,459.0,328.0,729.0
11373,459.0,328.0,729.0
12867,1489.0,377.0,3310.0
12868,1489.0,377.0,3310.0
12869,1489.0,377.0,3310.0
12870,189.0,377.0,3310.0
12871,14489.0,377.0,3310.0
12872,1489.0,377.0,3310.0
12873,1489.0,377.0,3310.0
12874,1489.0,377.0,3310.0
12875,1489.0,377.0,3310.0
12876,1489.0,377.0,3310.0
12877,1489.0,377.0,3310.0
12878,1489.0,377.0,3310.0
12879,813.0,377.0,3310.0
12880,813.0,377.0,3310.0
12881,990.0,377.0,3310.0
12882,990.0,377.0,3310.0
12883,990.0,377.0,3310.0
12884,990.0,377.0,3310.0
12885,990.0,377.0,3310.0
12886,990.0,377.0,3310.0
12887,990.0,384.0,3310.0
12888,10.0,384.0,3310.0
12889,99990.0,384.0,3310.0
12890,990.0,384.0,3310.0
12891,990.0,384.0,3310.0
12892,1926.0,384.0,3310.0
12893,2341.0,384.0,3310.0
12894,1922.0,384.0,3310.0
12895,1922.0,384.0,3310.0
12896,2084.0,384.0,3310.0
12897,2084.0,384.0,3310.0
12898,2084.0,384.0,3310.0
12899,2084.0,384.0,3310.0
12900,2084.0,384.0,3310.0
12901,2084.0,384.0,3310.0
12902,2084.0,384.0,3310.0
12903,2412.0,384.0,3310.0
12904,2412.0,384.0,3310.0
12905,2412.0,384.0,3310.0
12906,2412.0,384.0,3310.0
12907,2412.0,608.0,3310.0
12908,2412.0,608.0,3310.0
12909,2412.0,608.0,3310.0
12910,2412.0,608.0,3310.0
12911,2412.0,608.0,3310.0
12912,2412.0,608.0,3310.0
12913,2412.0,608.0,3310.0
12914,2412.0,608.0,3310.0
12915,2412.0,608.0,3310.0
12916,2412.0,608.0,3310.0
12917,2412.0,608.0,3310.0
12918,2412.0,491.0,3310.0
12919,2412.0,491.0,3310.0
12920,2412.0,301.0,3310.0
12921,2412.0,301.0,3310.0
12922,2412.0,301.0,3310.0
12923,2412.0,301.0,3310.0
12924,2412.0,301.0,3310.0
12925,2412.0,301.0,3310.0
12926,2412.0,301.0,3310.0
12927,2412.0,301.0,3310.0
12928,1964.0,301.0,3310.0
12929,1964.0,301.0,3310.0
12930,1549.0,301.0,3310.0
12931,1201.0,301.0,3310.0
12932,1666.0,301.0,3310.0
12933,1666.0,301.0,3310.0
12934,1666.0,301.0,3310.0
12935,1666.0,301.0,3310.0
12936,1666.0,301.0,3310.0
12937,1666.0,301.0,3310.0
12938,1666.0,301.0,3310.0
12939,1666.0,301.0,3310.0
12940,1666.0,301.0,3310.0
12941,1666.0,588.0,3310.0
12942,1666.0,248.0,3310.0
12943,1666.0,248.0,3310.0
12944,1666.0,344.0,3310.0
12945,1666.0,344.0,3310.0
12946,1666.0,344.0,3310.0
12947,1666.0,309.0,3310.0
12948,1666.0,309.0,3310.0
12949,1666.0,309.0,3310.0
12950,1666.0,302.0,3310.0
12951,1666.0,302.0,3310.0
12952,1666.0,302.0,3310.0
12953,1666.0,302.0,3310.0
12954,1666.0,302.0,1728.0
12955,1666.0,302.0,1728.0
12956,1666.0,302.0,1728.0
12957,1666.0,302.0,1728.0
12958,1666.0,302.0,1728.0
12959,1666.0,302.0,1728.0
12960,1666.0,302.0,1728.0
12961,1666.0,302.0,1728.0
12962,1666.0,302.0,1728.0
12963,1666.0,302.0,4720.0
12964,1666.0,302.0,4720.0
12965,1666.0,302.0,4720.0
12966,1666.0,352.0,4720.0
12967,1666.0,352.0,4720.0
12968,3707.0,352.0,4720.0
12969,1476.0,352.0,4720.0
12970,1476.0,352.0,4720.0
12971,1476.0,352.0,4720.0
12972,1476.0,352.0,4720.0
12973,1476.0,352.0,4720.0
12974,1476.0,352.0,4720.0
12975,1476.0,352.0,4720.0
12976,1476.0,565.0,4720.0
12977,1476.0,202.0,4720.0
12978,1476.0,202.0,4720.0
12979,1476.0,202.0,4720.0
12980,1787.0,202.0,4720.0
12981,1787.0,504.0,4720.0
12982,1787.0,504.0,4720.0
12983,1261.0,504.0,4720.0
12984,1261.0,285.0,4720.0
12985,1261.0,285.0,4720.0
12986,1261.0,347.0,4720.0
12987,1261.0,347.0,4720.0
12988,1261.0,713.0,4720.0
12989,1261.0,713.0,4720.0
12990,1261.0,713.0,4720.0
12991,1261.0,713.0,4720.0
12992,1261.0,713.0,4720.0
12993,1261.0,713.0,4720.0
12994,1261.0,713.0,4720.0
12995,1261.0,713.0,4720.0
12996,1261.0,713.0,4720.0
12997,1261.0,713.0,4720.0
12998,1261.0,713.0,4720.0
12999,1261.0,713.0,4720.0
13000,1261.0,713.0,4720.0
13001,1261.0,713.0,4720.0
13002,1261.0,713.0,4720.0
13003,1261.0,437.0,4720.0
13004,1261.0,437.0,4720.0
13005,1261.0,437.0,4720.0
13006,1261.0,437.0,4720.0
13007,1261.0,437.0,4720.0
13008,1261.0,437.0,4720.0
13009,1261.0,437.0,4720.0
13010,1261.0,437.0,4720.0
13011,1261.0,437.0,4720.0
13012,1261.0,437.0,4720.0
13013,1261.0,437.0,4720.0
13014,1261.0,437.0,4720.0
14721,1228.0,375.0,2138.0
14722,1228.0,375.0,2138.0
14723,1228.0,375.0,2229.0
14724,1228.0,375.0,2949.0
14725,1228.0,375.0,2949.0
14726,1228.0,375.0,2949.0
14727,1266.0,375.0,2949.0
14728,1266.0,375.0,2949.0
14729,1266.0,375.0,2949.0
14730,1266.0,375.0,2949.0
14731,1266.0,375.0,2949.0
14732,1266.0,375.0,2949.0
14733,1266.0,375.0,2949.0
14734,1266.0,375.0,1660.0
14735,2387.0,375.0,1660.0
14736,2387.0,375.0,1660.0
14737,2387.0,375.0,1660.0
14738,2387.0,375.0,1660.0
14739,2387.0,375.0,1660.0
14740,2387.0,375.0,1660.0
14741,2387.0,375.0,1660.0
14742,2387.0,375.0,1660.0
14743,2387.0,375.0,2288.0
14744,2387.0,375.0,2288.0
14745,2387.0,375.0,2288.0
14746,2387.0,375.0,2288.0
14747,2387.0,375.0,2288.0
14748,2387.0,375.0,2288.0
14749,2387.0,375.0,2288.0
14750,2387.0,375.0,2288.0
14751,2387.0,375.0,2288.0
14752,2387.0,375.0,2288.0
14753,2387.0,375.0,2288.0
14754,2387.0,375.0,2606.0
14755,2387.0,375.0,2757.0
14756,2387.0,375.0,2757.0
14757,2387.0,375.0,2757.0
14758,387.0,375.0,2757.0
14759,2387.0,375.0,850.0
14760,2387.0,375.0,850.0
14761,2387.0,375.0,850.0
14762,2387.0,375.0,850.0
14763,2387.0,375.0,850.0
14764,2387.0,375.0,850.0
14765,2387.0,375.0,850.0
14766,2387.0,375.0,850.0
14767,2387.0,375.0,850.0
14768,2387.0,375.0,850.0
14769,2387.0,375.0,850.0
14770,2387.0,375.0,850.0
14771,23877.0,375.0,850.0
14772,238387.0,375.0,850.0
14773,2387.0,375.0,850.0
14774,2387.0,375.0,850.0
14775,2387.0,375.0,850.0
14776,2387.0,375.0,850.0
14777,2387.0,375.0,850.0
14778,2387.0,375.0,2140.0
14779,2387.0,375.0,2293.0
14780,2387.0,375.0,2293.0
14781,2387.0,375.0,2293.0
14782,2387.0,375.0,2293.0
14783,2387.0,375.0,2293.0
14784,2387.0,375.0,2293.0
14785,2387.0,375.0,2293.0
14786,2387.0,375.0,2293.0
14787,2387.0,375.0,2293.0
14788,2387.0,375.0,2293.0
14789,2387.0,375.0,2293.0
14790,2387.0,375.0,2293.0
14791,2387.0,375.0,2293.0
14792,2387.0,375.0,2293.0
14793,2387.0,385.0,2293.0
14794,2387.0,385.0,2293.0
14795,2387.0,385.0,2293.0
14796,2387.0,385.0,2293.0
14797,2387.0,385.0,2293.0
14798,2387.0,385.0,2293.0
14799,287.0,385.0,2293.0
14800,23387.0,385.0,2293.0
14801,2387.0,385.0,1035.0
14802,2387.0,385.0,1035.0
14803,2387.0,385.0,652.0
14804,2387.0,385.0,652.0
14805,2387.0,385.0,652.0
14806,2387.0,385.0,652.0
14807,2387.0,385.0,652.0
14808,2387.0,385.0,1174.0
14809,2387.0,385.0,1174.0
14810,2387.0,385.0,1174.0
14811,2387.0,385.0,1601.0
14812,2387.0,689.0,1601.0
14813,2387.0,689.0,1601.0
14814,2387.0,689.0,1601.0
14815,2387.0,689.0,1601.0
14816,2387.0,689.0,1601.0
14817,2387.0,689.0,1601.0
14818,2387.0,689.0,2000.0
14819,2387.0,689.0,2000.0
14820,2387.0,689.0,1499.0
14821,2387.0,689.0,1604.0
14822,2387.0,689.0,2838.0
14823,2387.0,689.0,2838.0
14824,2387.0,689.0,2838.0
14825,2387.0,689.0,2838.0
14826,2387.0,689.0,2838.0
14827,2387.0,689.0,2838.0
14828,2387.0,689.0,2838.0
14829,2387.0,689.0,750.0
14830,2387.0,689.0,750.0
14831,2387.0,689.0,1051.0
14832,2387.0,689.0,1051.0
14833,2387.0,689.0,1051.0
14834,2387.0,689.0,1051.0
14835,2387.0,689.0,1929.0
14836,2387.0,689.0,1929.0
14837,2387.0,607.0,1929.0
14838,22387.0,607.0,1929.0
14839,2387.0,607.0,1929.0
14840,2387.0,607.0,1929.0
14841,2387.0,607.0,1929.0
14842,2387.0,607.0,1929.0
16440,1911.0,2701.0,2255.0
16441,1911.0,1909.0,2255.0
16442,1911.0,1909.0,2255.0
16443,1911.0,1909.0,2255.0
16444,1911.0,1909.0,2255.0
16445,1911.0,2205.0,2255.0
16446,1911.0,2205.0,2255.0
16447,1911.0,2205.0,2255.0
16448,1911.0,2205.0,2255.0
16449,1911.0,3497.0,2255.0
16450,1911.0,3497.0,2255.0
16451,1911.0,3497.0,2255.0
16452,1911.0,2232.0,2255.0
16453,1911.0,2232.0,2255.0
16454,1911.0,2232.0,2255.0
16455,1911.0,2232.0,2255.0
16456,1911.0,4037.0,2255.0
16457,1911.0,4037.0,2255.0
16458,1911.0,4037.0,2255.0
16459,1534.0,4037.0,2255.0
16460,1534.0,4037.0,2255.0
16461,1534.0,4037.0,2255.0
16462,1534.0,4037.0,2255.0
16463,1534.0,3796.0,2255.0
16464,1534.0,3796.0,2255.0
16465,1623.0,3796.0,2255.0
16466,1623.0,3796.0,2255.0
16467,1623.0,3796.0,2255.0
16468,3505.0,3796.0,2255.0
16469,3505.0,3796.0,2255.0
16470,3505.0,3796.0,2255.0
16471,3505.0,3796.0,2255.0
16472,3505.0,3796.0,1913.0
16473,3505.0,3796.0,1913.0
16474,3505.0,3796.0,1913.0
16475,3505.0,3796.0,1913.0
16476,1107.0,3796.0,1913.0
16477,1107.0,3557.0,1913.0
16478,1107.0,3557.0,1913.0
16479,1107.0,3557.0,1913.0
16480,1107.0,1498.0,1913.0
16481,3505.0,1498.0,1913.0
16482,1058.0,1498.0,1913.0
16483,1058.0,1498.0,1913.0
16484,1058.0,1498.0,1913.0
16485,1058.0,1498.0,1913.0
16486,1058.0,1498.0,1913.0
16487,1058.0,1498.0,1913.0
16488,1058.0,1498.0,1913.0
16489,2684.0,1498.0,1913.0
16490,1908.0,1498.0,1913.0
16491,1908.0,1498.0,1913.0
16492,2418.0,1498.0,1913.0
16493,26.0,1498.0,1913.0
16494,2418287.0,1498.0,1913.0
16495,2287.0,1498.0,1913.0
16496,2287.0,1498.0,1913.0
16497,2287.0,1498.0,1913.0
16498,2287.0,1498.0,1913.0
16499,2287.0,1498.0,1913.0
16500,22877.0,1498.0,1913.0
16501,22887.0,1498.0,1913.0
16502,2287.0,1498.0,1913.0
16503,2287.0,1498.0,1913.0
16504,2287.0,1498.0,1913.0
16505,2287.0,1498.0,1913.0
16506,2287.0,1498.0,1913.0
16507,2287.0,1498.0,1913.0
16508,2287.0,1498.0,1913.0
16509,2287.0,1498.0,1913.0
16510,2287.0,1498.0,1913.0
16511,2287.0,1498.0,1913.0
16512,2287.0,1498.0,1913.0
16513,2287.0,1498.0,1913.0
16514,2287.0,1498.0,1913.0
16515,2287.0,1498.0,1913.0
16516,2287.0,1498.0,1913.0
16517,2287.0,1498.0,1913.0
16518,2343.0,1498.0,1913.0
16519,2343.0,1498.0,1913.0
16520,2343.0,1498.0,1913.0
16521,2343.0,1498.0,1913.0
16522,2343.0,1498.0,1913.0
16523,2343.0,1498.0,1913.0
16524,2343.0,1498.0,1913.0
16525,2343.0,1498.0,1913.0
16526,2343.0,1498.0,1913.0
16527,2343.0,1498.0,1913.0
16528,2343.0,1498.0,1913.0
16529,977.0,2714.0,1913.0
16530,977.0,2714.0,1913.0
16531,977.0,2714.0,1913.0
16532,977.0,2714.0,1913.0
16533,977.0,2714.0,1913.0
16534,977.0,2714.0,1913.0
16535,977.0,2714.0,1913.0
16536,977.0,2714.0,1913.0
16537,977.0,2714.0,1913.0
16538,977.0,4476.0,1913.0
16539,977.0,4476.0,1913.0
16540,977.0,4476.0,1913.0
16541,1867.0,4476.0,1913.0
16542,1867.0,4476.0,1913.0
16543,1867.0,4520.0,1913.0
16544,1867.0,3505.0,1913.0
16545,1867.0,3505.0,1913.0
16546,1867.0,3505.0,1913.0
16547,1867.0,3505.0,1913.0
16548,1867.0,3505.0,1913.0
16549,1867.0,3505.0,1913.0
16550,1867.0,3505.0,1913.0
16551,1867.0,3505.0,1913.0
16552,1867.0,3505.0,1913.0
16553,1867.0,3505.0,1913.0
16554,1867.0,3505.0,1913.0
16555,1867.0,3505.0,1913.0
16556,1867.0,3505.0,1913.0
16557,1867.0,3505.0,1913.0
16558,1867.0,3505.0,1913.0
16559,1867.0,3505.0,1913.0
16560,1867.0,3505.0,1913.0
16561,1867.0,1788.0,1913.0
16562,1867.0,1788.0,1913.0
16563,1867.0,1788.0,1913.0
16564,1867.0,1788.0,1913.0
16565,1867.0,1788.0,1913.0
16566,1867.0,1788.0,1913.0
16567,1867.0,1788.0,1913.0
16568,1867.0,1788.0,1913.0
16569,1867.0,2726.0,1913.0
16570,625.0,2726.0,1913.0
16571,3345.0,2726.0,1913.0
16572,3345.0,2726.0,1913.0
16573,3345.0,2726.0,1913.0
17403,1378.0,78.0,782.0
18128,1689.0,624.0,1694.0
18129,1689.0,624.0,2663.0
18130,1689.0,624.0,2663.0
18131,1689.0,624.0,2663.0
18132,1689.0,624.0,2663.0
18133,1689.0,624.0,1600.0
18134,1689.0,624.0,1600.0
18135,1689.0,624.0,1600.0
18136,1689.0,624.0,1600.0
18137,1689.0,624.0,1600.0
18138,1689.0,624.0,1600.0
18139,1689.0,624.0,1600.0
18140,1689.0,624.0,3840.0
18141,1689.0,624.0,3840.0
18142,1689.0,624.0,3840.0
18143,1689.0,624.0,3840.0
18144,1689.0,624.0,3840.0
18145,1689.0,624.0,3840.0
18146,1689.0,624.0,3840.0
18147,1689.0,624.0,3840.0
18148,1689.0,624.0,3840.0
18149,1689.0,624.0,3840.0
18150,1689.0,624.0,3840.0
18151,1689.0,624.0,3840.0
18152,1264.0,624.0,3840.0
18153,1431.0,624.0,3840.0
18154,1431.0,624.0,3840.0
18155,1577.0,624.0,3840.0
18156,1577.0,624.0,3840.0
18157,1577.0,624.0,3840.0
18158,1577.0,624.0,3840.0
18159,1232.0,624.0,3840.0
18160,1232.0,624.0,3840.0
18161,1232.0,624.0,3840.0
18162,1232.0,624.0,3840.0
18163,1232.0,624.0,3840.0
18164,1232.0,624.0,3840.0
18165,1232.0,624.0,3840.0
18166,1232.0,624.0,3840.0
18167,1232.0,624.0,1910.0
18168,1232.0,624.0,1910.0
18169,1232.0,624.0,1910.0
18170,1232.0,624.0,1910.0
18171,1232.0,624.0,1910.0
18172,1232.0,624.0,1910.0
18173,1232.0,624.0,1779.0
18174,1232.0,624.0,1779.0
18175,1232.0,624.0,1779.0
18176,1492.0,624.0,1779.0
18177,1492.0,624.0,1779.0
18178,1669.0,624.0,1779.0
18179,1572.0,624.0,1779.0
18180,1767.0,624.0,1779.0
18181,1767.0,624.0,1779.0
18182,1767.0,624.0,1779.0
18183,1767.0,624.0,1779.0
18184,1767.0,624.0,1779.0
18185,1767.0,624.0,1779.0
18186,1767.0,624.0,1779.0
18187,1767.0,624.0,1779.0
18188,1767.0,624.0,1779.0
18189,1767.0,624.0,1779.0
18190,1767.0,624.0,1779.0
18191,1767.0,624.0,1779.0
18192,1767.0,624.0,1779.0
18193,2079.0,624.0,1779.0
18194,2079.0,624.0,1779.0
18195,2079.0,624.0,1779.0
18196,2079.0,624.0,1779.0
18197,2079.0,624.0,1779.0
18198,19.0,624.0,1779.0
18199,207079.0,624.0,1779.0
18200,279.0,624.0,1779.0
18201,20079.0,624.0,1779.0
18202,2.0,624.0,1779.0
18203,207979.0,624.0,1779.0
18204,2079.0,624.0,1779.0
18205,2079.0,624.0,1779.0
18206,2079.0,624.0,1779.0
18207,2079.0,624.0,1779.0
18208,2079.0,624.0,1779.0
18209,2079.0,624.0,1779.0
18210,2079.0,624.0,1779.0
18211,2079.0,624.0,1779.0
18212,2079.0,624.0,1779.0
18213,2079.0,624.0,1779.0
18214,2079.0,624.0,1779.0
18215,2079.0,624.0,1779.0
18216,2079.0,624.0,1779.0
18217,2079.0,624.0,1779.0
18218,2079.0,624.0,1779.0
18219,2079.0,624.0,1779.0
18220,2079.0,624.0,1779.0
18221,2079.0,624.0,1779.0
18222,2079.0,624.0,1779.0
18223,2079.0,624.0,1779.0
18224,2079.0,624.0,1779.0
18225,2079.0,624.0,1779.0
18226,2079.0,624.0,1779.0
18227,2079.0,624.0,1779.0
18228,2079.0,624.0,1779.0
18229,2079.0,624.0,1779.0
18230,2079.0,624.0,1779.0
18231,2079.0,624.0,1779.0
18232,2079.0,624.0,1779.0
18233,2079.0,624.0,1779.0
18234,2079.0,624.0,1779.0
18235,2079.0,624.0,1779.0
18236,2079.0,624.0,1779.0
18237,2079.0,624.0,1779.0
18238,2079.0,624.0,1779.0
18239,2867.0,624.0,1779.0
18240,2867.0,624.0,1779.0
18241,2867.0,624.0,1779.0
18242,2867.0,624.0,1779.0
18243,2867.0,624.0,1779.0
19047,1159.0,5351.0,2252.0
19048,1159.0,5351.0,2252.0
19049,1159.0,5351.0,2252.0
19050,1159.0,5351.0,2252.0
19051,1159.0,5351.0,2252.0
19052,1159.0,5351.0,2252.0
19053,1159.0,5351.0,2252.0
19054,1344.0,5351.0,2110.0
19055,1344.0,5351.0,2110.0
19056,1344.0,5351.0,2110.0
19057,1344.0,5351.0,2110.0
19058,1344.0,5351.0,3173.0
19059,1344.0,5351.0,3173.0
19060,1286.0,5351.0,3173.0
19061,1286.0,5351.0,3173.0
19062,1286.0,5351.0,3173.0
19063,1286.0,5351.0,3173.0
19064,1286.0,5351.0,1178.0
19065,1286.0,5351.0,1178.0
19066,1286.0,5351.0,1178.0
19067,1746.0,5351.0,1178.0
19068,1746.0,5351.0,1178.0
19069,1141.0,5351.0,1178.0
19070,2304.0,1517.0,1517.0
19071,640.0,23140.0,2316.0
20052,1271.0,2970.0,1523.0
20053,1281.0,2970.0,1523.0
20054,1281.0,1675.0,1523.0
20055,100.0,1675.0,1523.0
20056,844.0,1675.0,1523.0
20057,844.0,1675.0,1523.0
20058,844.0,1654.0,1523.0
20059,844.0,1654.0,1523.0
20060,844.0,1654.0,1523.0
20061,844.0,1654.0,1523.0
20062,844.0,1654.0,1523.0
20063,771.0,1654.0,1523.0
20064,771.0,1313.0,1523.0
20065,771.0,1313.0,1523.0
20066,771.0,1422.0,1523.0
20067,771.0,3337.0,1523.0
20068,771.0,3337.0,1523.0
20069,71.0,3337.0,1523.0
20070,771.0,3337.0,1523.0
20071,771.0,3337.0,1523.0
20072,771.0,3337.0,1523.0
20073,771.0,3337.0,1523.0
20074,771.0,3337.0,1523.0
20075,771.0,3337.0,1523.0
20076,771.0,1170.0,1523.0
20077,771.0,1170.0,1523.0
20078,771.0,1170.0,1523.0
20079,771.0,1170.0,1523.0
20080,771.0,1170.0,1523.0
20081,7771.0,1170.0,1523.0
20082,7771.0,1170.0,1523.0
20083,952.0,1170.0,1523.0
20084,952.0,1170.0,1523.0
20085,952.0,1170.0,1523.0
20086,952.0,1170.0,1523.0
20087,952.0,1170.0,1523.0
20088,952.0,1170.0,1523.0
20089,952.0,1170.0,1523.0
20090,952.0,1170.0,1523.0
20091,952.0,1170.0,1523.0
20092,952.0,1170.0,1523.0
20093,952.0,1170.0,1523.0
20094,72.0,1170.0,1523.0
20095,9537.0,1170.0,1523.0
20096,837.0,1170.0,1523.0
20097,837.0,1170.0,1523.0
20098,837.0,1170.0,1523.0
20099,837.0,1170.0,1523.0
20100,837.0,1170.0,1523.0
20101,837.0,1170.0,1523.0
20102,721.0,1170.0,1523.0
20103,721.0,1170.0,1523.0
20104,721.0,1170.0,1523.0
20105,721.0,1170.0,1523.0
20106,721.0,1170.0,1523.0
20107,721.0,1170.0,1523.0
20108,721.0,1170.0,1523.0
20109,721.0,1170.0,1523.0
20110,1522.0,1170.0,1523.0
20111,1522.0,1170.0,1523.0
20112,1522.0,1170.0,1523.0
20113,1522.0,1170.0,1523.0
20114,1522.0,1170.0,1523.0
20115,1522.0,1170.0,1523.0
20116,1522.0,1170.0,1523.0
20117,1522.0,1170.0,1523.0
20118,1522.0,1170.0,1523.0
20119,1522.0,1170.0,1523.0
20120,1522.0,1170.0,1523.0
20121,1522.0,1170.0,1523.0
20122,1522.0,1170.0,1523.0
20123,1522.0,1170.0,1523.0
20124,1522.0,1170.0,1523.0
20125,1522.0,1170.0,1523.0
20126,1522.0,1170.0,1523.0
20127,1522.0,1170.0,1523.0
20128,1522.0,1170.0,1523.0
20129,1522.0,1170.0,1523.0
20130,1522.0,1170.0,1523.0
20131,1522.0,1170.0,1523.0
20132,1046.0,1170.0,1523.0
20133,1046.0,1170.0,1523.0
20134,1046.0,1170.0,1523.0
20135,1046.0,1170.0,1523.0
20136,1046.0,1170.0,1523.0
20137,1046.0,1170.0,1523.0
20138,1046.0,1170.0,1523.0
20139,1046.0,1170.0,1523.0
20140,1046.0,1170.0,1523.0
20141,1046.0,1170.0,1523.0
20142,1046.0,1170.0,1523.0
20143,1046.0,1170.0,1523.0
20144,1046.0,1170.0,1523.0
20145,1046.0,1170.0,1523.0
20146,1539.0,1170.0,1523.0
20147,1539.0,1170.0,1523.0
20148,1539.0,1170.0,1523.0
20149,1539.0,1170.0,1523.0
20150,1539.0,1170.0,1523.0
20151,1539.0,1170.0,1523.0
20152,1539.0,1170.0,1523.0
20153,1539.0,1170.0,1523.0
20154,1539.0,1170.0,1523.0
20155,1625.0,1170.0,1523.0
20156,1625.0,1170.0,1523.0
20157,1625.0,1170.0,1523.0
20158,1625.0,1170.0,1523.0
20159,1625.0,1170.0,1523.0
20160,1625.0,1170.0,1523.0
20161,1770.0,1170.0,1523.0
20162,1770.0,1170.0,1523.0
20163,560.0,1170.0,1523.0
20164,560.0,1170.0,1523.0
20165,1096.0,1170.0,1523.0
20166,1096.0,1170.0,1523.0
20167,1010.0,1170.0,1523.0
20168,1010.0,1170.0,1523.0
20169,1010.0,1170.0,1523.0
20170,1010.0,1170.0,1523.0
20171,1010.0,1170.0,1523.0
20172,1010.0,1170.0,1523.0
20173,597.0,1170.0,1523.0
20174,597.0,1170.0,1523.0
20175,7.0,1170.0,1523.0
20176,1023.0,1170.0,1523.0
20177,1023.0,1170.0,1523.0
20178,1023.0,1170.0,1523.0
20179,1023.0,1170.0,1523.0
20180,1023.0,1170.0,1523.0
20181,1023.0,1170.0,1523.0
20182,1023.0,1170.0,1523.0
20183,1023.0,1170.0,1523.0
20184,1023.0,1170.0,1523.0
20185,1023.0,1170.0,1523.0
21703,1810.0,1928.0,513.0
21704,188880.0,1928.0,513.0
21705,1880.0,1928.0,513.0
21706,1880.0,1928.0,513.0
21707,1880.0,1928.0,513.0
21708,829.0,1928.0,395.0
21709,829.0,1928.0,395.0
21710,829.0,1960.0,395.0
21711,829.0,1960.0,395.0
21712,829.0,1960.0,395.0
21713,829.0,1960.0,395.0
21714,829.0,1960.0,395.0
21715,829.0,1960.0,395.0
21716,559.0,1960.0,395.0
21717,559.0,2079.0,395.0
21718,559.0,2506.0,395.0
21719,559.0,2506.0,395.0
21720,559.0,2506.0,395.0
21721,559.0,722.0,395.0
21722,559.0,722.0,395.0
21723,559.0,2412.0,395.0
21724,559.0,1641.0,395.0
21725,559.0,1941.0,395.0
21726,559.0,1941.0,395.0
21727,559.0,1941.0,395.0
21728,559.0,796.0,395.0
21729,559.0,796.0,395.0
21730,559.0,1358.0,395.0
21731,559.0,2659.0,395.0
21732,559.0,2659.0,395.0
21733,559.0,2659.0,541.0
21734,559.0,2659.0,541.0
21735,559.0,2659.0,541.0
21736,559.0,1657.0,541.0
21737,559.0,1657.0,541.0
21738,559.0,1657.0,541.0
21739,559.0,1657.0,541.0
21740,559.0,1657.0,541.0
21741,559.0,1657.0,541.0
21742,559.0,1657.0,541.0
21743,559.0,1657.0,541.0
21744,559.0,1657.0,541.0
21745,559.0,1657.0,541.0
21746,559.0,1657.0,541.0
21747,559.0,1657.0,541.0
21748,559.0,1657.0,541.0
21749,559.0,1657.0,541.0
21750,559.0,1657.0,541.0
21751,559.0,1657.0,541.0
21752,559.0,1657.0,541.0
21753,559.0,1657.0,541.0
21754,559.0,1657.0,541.0
21755,559.0,1657.0,541.0
21756,559.0,714.0,541.0
21757,559.0,714.0,541.0
21758,559.0,714.0,541.0
21759,559.0,714.0,541.0
21760,559.0,714.0,541.0
21761,559.0,2274.0,541.0
21762,559.0,1354.0,541.0
21763,559.0,1354.0,541.0
21764,559.0,1616.0,541.0
21765,559.0,1616.0,541.0
21766,559.0,1616.0,541.0
21767,559.0,1616.0,541.0
21768,559.0,1616.0,541.0
21769,559.0,1616.0,541.0
21770,559.0,1616.0,541.0
21771,559.0,1616.0,541.0
21772,559.0,1616.0,541.0
21773,559.0,1616.0,521.0
21774,559.0,1616.0,521.0
21775,559.0,1616.0,521.0
21776,559.0,1616.0,521.0
21777,559.0,1616.0,521.0
21778,559.0,1616.0,521.0
21779,559.0,1616.0,521.0
21780,559.0,1616.0,477.0
21781,559.0,2446.0,477.0
21782,559.0,2446.0,477.0
21783,559.0,2446.0,477.0
21784,559.0,2446.0,477.0
21785,559.0,2446.0,477.0
21786,559.0,2446.0,477.0
21787,559.0,2446.0,477.0
21788,559.0,2446.0,477.0
21789,559.0,2446.0,477.0
21790,559.0,2446.0,477.0
21791,559.0,2446.0,477.0
21792,559.0,2446.0,477.0
21793,559.0,2446.0,555.0
21794,559.0,2446.0,555.0
21795,559.0,2446.0,555.0
21796,559.0,3881.0,555.0
21797,559.0,3881.0,555.0
21798,559.0,3881.0,555.0
21799,559.0,3881.0,415.0
21800,559.0,3881.0,415.0
21801,559.0,3881.0,415.0
21802,559.0,3881.0,480.0
21803,5.0,3881.0,480.0
21804,559.0,3881.0,480.0
21805,559.0,1370.0,480.0
21806,559.0,1370.0,480.0
21807,559.0,1370.0,480.0
21808,559.0,1370.0,480.0
21809,559.0,1455.0,480.0
21810,559.0,1455.0,480.0
21811,559.0,1455.0,480.0
21812,559.0,1455.0,480.0
21813,559.0,977.0,480.0
21814,559.0,977.0,480.0
21815,559.0,977.0,480.0
21816,559.0,977.0,480.0
21817,559.0,977.0,480.0
21818,559.0,977.0,480.0
21819,1714.0,977.0,480.0
21820,1714.0,977.0,480.0
21821,1490.0,977.0,480.0
21822,1490.0,977.0,480.0
21823,1490.0,977.0,480.0
21824,1490.0,977.0,480.0
21825,1490.0,977.0,480.0
21826,1490.0,977.0,480.0
21827,1490.0,977.0,480.0
21828,1490.0,977.0,480.0
21829,1490.0,977.0,480.0
21830,1490.0,977.0,480.0
21831,1490.0,977.0,480.0
21832,1490.0,977.0,480.0
21833,1490.0,977.0,556.0
21834,1490.0,977.0,556.0
21835,1490.0,977.0,556.0
21836,1490.0,977.0,556.0
21837,1490.0,977.0,451.0
21838,1490.0,977.0,451.0
21839,1490.0,977.0,451.0
21840,1490.0,977.0,451.0
21841,1490.0,2105.0,451.0
21842,1242.0,2105.0,451.0
21843,1242.0,2105.0,451.0
21844,1242.0,2105.0,451.0
21845,1242.0,2105.0,451.0
21846,1242.0,2105.0,451.0
21847,669.0,2105.0,451.0
21848,669.0,2105.0,712.0
21849,669.0,2105.0,712.0
21850,669.0,2105.0,712.0
21851,669.0,2105.0,712.0
23575,88.0,14.0,246.0
23576,88.0,14.0,246.0
23577,88.0,14.0,246.0
23578,88.0,85.0,246.0
23579,88.0,85.0,246.0
23580,88.0,85.0,246.0
23581,88.0,85.0,246.0
23582,88.0,45.0,246.0
23583,88.0,45.0,246.0
23584,88.0,45.0,246.0
23585,225.0,45.0,246.0
23586,225.0,45.0,246.0
23587,153.0,45.0,246.0
23588,153.0,45.0,246.0
23589,153.0,83.0,216.0
23590,153.0,83.0,216.0
23591,233.0,83.0,208.0
23592,233.0,83.0,208.0
23593,233.0,83.0,208.0
23594,233.0,83.0,208.0
23595,245.0,83.0,208.0
23596,245.0,83.0,208.0
23597,113.0,83.0,208.0
23598,222.0,83.0,208.0
23599,222.0,83.0,192.0
23600,222.0,83.0,242.0
23601,222.0,83.0,234.0
23602,222.0,83.0,110.0
23603,222.0,83.0,110.0
23604,222.0,83.0,110.0
23605,222.0,83.0,172.0
23606,222.0,83.0,172.0
23607,222.0,83.0,172.0
23608,222.0,83.0,172.0
23609,222.0,83.0,172.0
23610,222.0,83.0,172.0
23611,222.0,83.0,137.0
23612,222.0,37.0,137.0
23613,222.0,37.0,204.0
23614,222.0,448.0,204.0
23615,222.0,84.0,204.0
23616,222.0,84.0,503.0
23617,222.0,84.0,363.0
23618,222.0,281.0,363.0
23619,222.0,281.0,363.0
23620,222.0,170.0,363.0
23621,222.0,170.0,363.0
23622,222.0,170.0,363.0
23623,354.0,170.0,363.0
23624,354.0,170.0,363.0
23625,354.0,35.0,219.0
23626,354.0,35.0,207.0
23627,354.0,35.0,207.0
23628,354.0,35.0,180.0
23629,354.0,35.0,180.0
23630,354.0,29.0,180.0
23631,282.0,29.0,180.0
23632,216.0,29.0,180.0
23633,216.0,29.0,374.0
23634,216.0,29.0,263.0
23635,162.0,29.0,263.0
23636,162.0,29.0,263.0
23637,162.0,29.0,263.0
23638,162.0,113.0,263.0
23639,162.0,79.0,263.0
23640,162.0,60.0,263.0
23641,162.0,60.0,263.0
23642,181.0,90.0,263.0
23643,181.0,37.0,263.0
23644,181.0,43.0,263.0
23645,181.0,43.0,263.0
23646,181.0,43.0,263.0
23647,181.0,43.0,263.0
23648,181.0,43.0,158.0
23649,181.0,43.0,158.0
23650,181.0,43.0,158.0
23651,181.0,43.0,158.0
23652,181.0,43.0,158.0
23653,151.0,43.0,158.0
23654,151.0,43.0,158.0
23655,151.0,43.0,158.0
23656,151.0,43.0,158.0
23657,151.0,43.0,369.0
23658,103.0,52.0,369.0
23659,103.0,71.0,369.0
23660,103.0,43.0,369.0
23661,103.0,43.0,369.0
23662,179.0,43.0,369.0
23663,179.0,43.0,369.0
23664,315.0,43.0,369.0
23665,315.0,43.0,369.0
23666,161.0,43.0,369.0
23667,161.0,43.0,369.0
23668,161.0,43.0,369.0
23669,259.0,43.0,369.0
23670,259.0,43.0,369.0
23671,167.0,60.0,369.0
23672,167.0,60.0,369.0
23673,167.0,60.0,369.0
23674,167.0,41.0,158.0
23675,167.0,41.0,158.0
23676,167.0,145.0,158.0
23677,167.0,29.0,158.0
23678,167.0,161.0,158.0
23679,167.0,161.0,158.0
23680,170.0,161.0,158.0
23681,309.0,161.0,158.0
23682,309.0,161.0,158.0
23683,309.0,139.0,158.0
23684,309.0,139.0,158.0
23685,170.0,139.0,158.0
23686,196.0,139.0,158.0
23687,285.0,139.0,158.0
23688,285.0,139.0,158.0
23689,285.0,139.0,215.0
23690,285.0,139.0,215.0
23691,285.0,139.0,215.0
23692,285.0,139.0,215.0
23693,285.0,99.0,215.0
23694,285.0,99.0,215.0
23695,283.0,99.0,215.0
23696,283.0,99.0,215.0
23697,283.0,82.0,215.0
23698,283.0,82.0,246.0
23699,132.0,82.0,246.0
23700,155.0,82.0,246.0
23701,155.0,82.0,112.0
23702,155.0,82.0,112.0
23703,155.0,82.0,257.0
23704,155.0,82.0,257.0
23705,155.0,82.0,257.0
23706,155.0,82.0,257.0
23707,155.0,82.0,202.0
23708,155.0,82.0,202.0
23709,155.0,82.0,198.0
23710,155.0,82.0,198.0
23711,155.0,82.0,198.0
23712,165.0,82.0,198.0
23713,165.0,82.0,198.0
23714,329.0,82.0,198.0
23715,329.0,82.0,198.0
23716,329.0,82.0,198.0
23717,329.0,82.0,198.0
23718,329.0,82.0,198.0
23719,329.0,71.0,198.0
23720,329.0,71.0,198.0
23721,329.0,71.0,198.0
23722,329.0,71.0,198.0
23723,329.0,71.0,198.0
23724,329.0,81.0,198.0
23725,329.0,82.0,198.0
23726,329.0,82.0,198.0
23727,329.0,67.0,198.0
25555,300.0,64.0,245.0
25556,300.0,64.0,245.0
25557,227.0,64.0,245.0
25558,227.0,64.0,245.0
25559,144.0,64.0,245.0
25560,254.0,52.0,185.0
25561,254.0,52.0,185.0
25562,254.0,52.0,185.0
25563,254.0,52.0,466.0
25564,254.0,52.0,235.0
25565,254.0,52.0,235.0
25566,254.0,52.0,235.0
25567,296.0,52.0,235.0
25568,296.0,52.0,235.0
25569,296.0,52.0,235.0
25570,296.0,52.0,235.0
25571,296.0,52.0,557.0
25572,296.0,52.0,557.0
25573,165.0,52.0,196.0
25574,165.0,52.0,196.0
25575,165.0,52.0,196.0
25576,165.0,52.0,245.0
25577,165.0,52.0,161.0
25578,165.0,52.0,308.0
25579,165.0,52.0,308.0
25580,165.0,47.0,308.0
25581,165.0,47.0,308.0
25582,165.0,81.0,308.0
25583,165.0,81.0,308.0
25584,165.0,81.0,308.0
25585,165.0,81.0,308.0
25586,340.0,117.0,308.0
25587,340.0,117.0,308.0
25588,340.0,117.0,308.0
25589,340.0,92.0,309.0
25590,340.0,92.0,391.0
25591,340.0,92.0,319.0
25592,340.0,92.0,319.0
25593,340.0,590.0,319.0
25594,340.0,122.0,319.0
25595,340.0,396.0,319.0
25596,340.0,396.0,319.0
25597,340.0,57.0,319.0
25598,340.0,57.0,319.0
25599,340.0,178.0,319.0
25600,340.0,178.0,319.0
25601,345.0,178.0,319.0
25602,345.0,178.0,319.0
25603,345.0,178.0,319.0
25604,385.0,178.0,319.0
25605,385.0,178.0,319.0
25606,244.0,178.0,86.0
25607,244.0,178.0,86.0
25608,244.0,178.0,86.0
25609,244.0,178.0,86.0
25610,244.0,178.0,86.0
25611,244.0,178.0,86.0
25612,244.0,178.0,86.0
25613,244.0,178.0,86.0
25614,244.0,178.0,86.0
25615,244.0,178.0,86.0
25616,244.0,178.0,487.0
25617,244.0,178.0,136.0
25618,244.0,178.0,302.0
25619,244.0,178.0,276.0
25620,244.0,178.0,331.0
25621,244.0,178.0,286.0
25622,244.0,59.0,314.0
25623,159.0,59.0,314.0
25624,335.0,59.0,541.0
25625,335.0,59.0,541.0
25626,295.0,59.0,541.0
25627,302.0,59.0,541.0
25628,291.0,59.0,541.0
25629,291.0,59.0,541.0
25630,291.0,59.0,541.0
25631,291.0,59.0,283.0
25632,192.0,59.0,283.0
25633,192.0,67.0,283.0
25634,192.0,67.0,283.0
25635,192.0,67.0,177.0
25636,396.0,74.0,177.0
25637,396.0,74.0,177.0
25638,315.0,74.0,177.0
25639,315.0,74.0,177.0
25640,315.0,74.0,302.0
25641,315.0,74.0,302.0
25642,315.0,74.0,302.0
25643,315.0,90.0,302.0
25644,315.0,81.0,302.0
25645,315.0,81.0,280.0
25646,315.0,81.0,280.0
25647,398.0,81.0,280.0
25648,398.0,42.0,280.0
25649,398.0,72.0,148.0
25650,398.0,72.0,148.0
25651,398.0,72.0,292.0
25652,398.0,72.0,289.0
25653,398.0,122.0,289.0
25654,398.0,122.0,289.0
25655,398.0,39.0,289.0
25656,170.0,39.0,289.0
25657,170.0,39.0,289.0
25658,170.0,39.0,289.0
25659,170.0,89.0,289.0
25660,170.0,89.0,289.0
25661,144.0,89.0,289.0
25662,144.0,89.0,289.0
25663,221.0,89.0,289.0
25664,129.0,141.0,289.0
25665,135.0,141.0,289.0
25666,359.0,141.0,289.0
25667,150.0,141.0,289.0
25668,150.0,141.0,289.0
25669,337.0,141.0,289.0
25670,337.0,141.0,289.0
25671,337.0,141.0,222.0
25672,337.0,141.0,222.0
25673,136.0,141.0,222.0
25674,136.0,141.0,413.0
25675,136.0,141.0,146.0
25676,136.0,65.0,146.0
25677,136.0,48.0,146.0
25678,136.0,48.0,146.0
25679,136.0,88.0,146.0
25680,136.0,88.0,146.0
25681,136.0,32.0,146.0
25682,136.0,32.0,146.0
25683,136.0,32.0,146.0
25684,136.0,32.0,146.0
25685,136.0,32.0,146.0
25686,136.0,32.0,211.0
25687,136.0,32.0,211.0
25688,136.0,54.0,211.0
25689,136.0,97.0,211.0
25690,136.0,97.0,211.0
25691,136.0,44.0,211.0
25692,136.0,44.0,211.0
25693,136.0,97.0,211.0
25694,278.0,97.0,211.0
25695,278.0,97.0,211.0
25696,240.0,97.0,211.0
25697,80.0,97.0,211.0
25698,80.0,97.0,207.0
25699,238.0,97.0,207.0
25700,385.0,97.0,207.0
25701,385.0,32.0,207.0
25702,385.0,32.0,207.0
25703,385.0,41.0,207.0
25704,385.0,71.0,207.0
25705,291.0,82.0,207.0
25706,291.0,82.0,207.0
30202,225.0,1372.0,511.0
30203,225.0,799.0,511.0
30204,225.0,799.0,511.0
30205,225.0,831.0,511.0
30206,225.0,831.0,511.0
30207,225.0,831.0,511.0
30208,225.0,831.0,511.0
30209,225.0,1192.0,511.0
30210,225.0,1192.0,511.0
30211,225.0,1192.0,511.0
30212,225.0,1192.0,511.0
30213,225.0,1192.0,511.0
30214,225.0,1192.0,511.0
30215,225.0,1192.0,1288.0
30216,225.0,1192.0,1288.0
30217,217.0,1192.0,1288.0
30218,217.0,1192.0,1288.0
30219,217.0,1192.0,1288.0
30220,217.0,1192.0,1288.0
30221,217.0,1192.0,1288.0
30222,180.0,773.0,1288.0
30223,180.0,605.0,1288.0
30224,180.0,605.0,1288.0
30225,180.0,605.0,1288.0
30226,180.0,605.0,1288.0
30227,180.0,605.0,1288.0
30228,239.0,605.0,1288.0
30229,239.0,605.0,1288.0
30230,239.0,605.0,1288.0
30231,239.0,605.0,1288.0
30232,154.0,605.0,1288.0
30233,154.0,605.0,1288.0
30234,134.0,605.0,1288.0
30235,286.0,605.0,1288.0
30236,286.0,605.0,1288.0
30237,286.0,605.0,1288.0
30238,286.0,605.0,1288.0
30239,286.0,605.0,1288.0
30240,286.0,605.0,1288.0
30241,286.0,605.0,1288.0
30242,286.0,605.0,1288.0
30243,286.0,605.0,1288.0
30244,356.0,605.0,1288.0
30245,356.0,605.0,1288.0
30246,198.0,605.0,1288.0
30247,198.0,605.0,1288.0
30248,198.0,605.0,1288.0
30249,90.0,605.0,1288.0
30250,90.0,605.0,1288.0
30251,175.0,605.0,1288.0
30252,373.0,605.0,1288.0
30253,373.0,605.0,1288.0
30254,373.0,605.0,1288.0
30255,373.0,605.0,1288.0
30256,424.0,605.0,1288.0
30257,489.0,605.0,1288.0
30258,489.0,605.0,1288.0
30259,253.0,605.0,1288.0
30260,253.0,605.0,1659.0
30261,253.0,605.0,1659.0
30262,253.0,605.0,1659.0
30263,253.0,605.0,1659.0
30264,253.0,605.0,1659.0
30265,253.0,418.0,1659.0
30266,253.0,418.0,1659.0
30267,293.0,418.0,1659.0
30268,293.0,418.0,1659.0
30269,408.0,418.0,1659.0
30270,408.0,418.0,1659.0
30271,378.0,488.0,1659.0
30272,205.0,488.0,1659.0
30273,164.0,488.0,1659.0
30274,164.0,488.0,1659.0
30275,241.0,488.0,1659.0
30276,241.0,488.0,1014.0
30277,241.0,488.0,1014.0
30278,241.0,488.0,1014.0
30279,241.0,488.0,1014.0
30280,241.0,488.0,1014.0
30281,305.0,488.0,1014.0
30282,305.0,488.0,1014.0
30283,240.0,488.0,1014.0
30284,328.0,488.0,1014.0
30285,328.0,653.0,1014.0
30286,328.0,653.0,1014.0
30287,281.0,653.0,1014.0
30288,150.0,653.0,1014.0
30289,245.0,653.0,1014.0
30290,245.0,653.0,1014.0
30291,245.0,653.0,1014.0
30292,245.0,653.0,1014.0
30293,407.0,653.0,1014.0
30294,503.0,653.0,1014.0
30295,503.0,653.0,1014.0
30296,503.0,653.0,1014.0
30297,503.0,653.0,1014.0
30298,503.0,653.0,1014.0
30299,503.0,653.0,1014.0
30300,503.0,653.0,1014.0
30301,503.0,653.0,1014.0
30302,203.0,653.0,1014.0
30303,203.0,653.0,1014.0
30304,203.0,653.0,1014.0
30305,203.0,653.0,1014.0
30306,203.0,653.0,1014.0
30307,203.0,653.0,1014.0
30308,331.0,653.0,1014.0
30309,331.0,653.0,1014.0
30310,331.0,653.0,1014.0
30311,331.0,653.0,1014.0
30312,374.0,653.0,1014.0
30313,374.0,653.0,1014.0
30314,374.0,653.0,1014.0
30315,374.0,1300.0,1014.0
30316,374.0,1300.0,1014.0
30317,374.0,1300.0,1014.0
30318,374.0,1300.0,1014.0
30319,374.0,1300.0,1014.0
30320,374.0,1300.0,1248.0
30321,374.0,1300.0,1248.0
30322,374.0,1300.0,1248.0
30323,374.0,1300.0,1248.0
30324,374.0,1856.0,1248.0
30325,374.0,1005.0,1248.0
30326,374.0,1005.0,1248.0
30327,389.0,594.0,1248.0
30328,389.0,594.0,1248.0
30329,389.0,594.0,1248.0
30330,389.0,594.0,1305.0
30331,389.0,594.0,1305.0
30332,389.0,594.0,1305.0
30333,389.0,500.0,1305.0
30334,389.0,500.0,1305.0
30335,389.0,500.0,1305.0
30336,389.0,500.0,1305.0
30337,317.0,500.0,1305.0
30338,132.0,500.0,1305.0
30339,504.0,500.0,1305.0
30340,413.0,500.0,1305.0
30341,413.0,500.0,1305.0
30342,217.0,500.0,1305.0
30343,217.0,1022.0,1305.0
30344,217.0,545.0,1305.0
30345,217.0,545.0,1305.0
30346,217.0,545.0,1305.0
30347,484.0,545.0,1305.0
30348,484.0,545.0,1305.0
30349,484.0,545.0,1305.0
30350,484.0,545.0,1165.0
30351,484.0,545.0,1165.0
30352,484.0,545.0,1165.0
30353,484.0,1114.0,1165.0
30354,484.0,1114.0,1165.0
31607,367.0,440.0,623.0
31608,367.0,440.0,1734.0
31609,367.0,478.0,1734.0
31610,367.0,478.0,1734.0
31611,367.0,478.0,1734.0
31612,231.0,478.0,1734.0
31613,231.0,478.0,1734.0
31614,231.0,478.0,1734.0
31615,231.0,478.0,742.0
31616,343.0,478.0,2390.0
31617,343.0,478.0,2390.0
31618,343.0,478.0,2390.0
31619,343.0,478.0,2390.0
31620,343.0,478.0,1259.0
31621,343.0,478.0,896.0
31622,343.0,478.0,896.0
31623,343.0,478.0,896.0
31624,343.0,761.0,896.0
31625,343.0,761.0,896.0
31626,343.0,543.0,896.0
31627,271.0,543.0,896.0
31628,271.0,543.0,896.0
31629,271.0,543.0,896.0
31630,271.0,543.0,896.0
31631,271.0,543.0,896.0
31632,271.0,543.0,896.0
31633,271.0,543.0,896.0
31634,211.0,543.0,896.0
31635,201.0,543.0,2241.0
31636,282.0,543.0,2241.0
31637,282.0,543.0,2241.0
31638,282.0,1071.0,2241.0
31639,282.0,1345.0,2241.0
31640,282.0,1345.0,2241.0
31641,282.0,958.0,2241.0
31642,282.0,958.0,2241.0
31643,282.0,433.0,2241.0
31644,282.0,433.0,2241.0
31645,1033.0,718.0,2241.0
31646,204.0,718.0,2241.0
31647,204.0,718.0,2241.0
31648,307.0,718.0,2241.0
31649,307.0,718.0,2241.0
31650,307.0,718.0,2241.0
31651,307.0,718.0,2241.0
31652,307.0,385.0,2241.0
31653,307.0,385.0,2241.0
31654,384.0,385.0,2241.0
31655,384.0,385.0,2241.0
31656,384.0,857.0,2241.0
31657,384.0,857.0,2241.0
31658,384.0,970.0,2241.0
31659,384.0,970.0,2241.0
31660,384.0,970.0,2241.0
31661,384.0,970.0,2241.0
31662,769.0,970.0,2241.0
31663,205.0,970.0,2241.0
31664,205.0,970.0,2241.0
31665,205.0,970.0,2241.0
31666,341.0,467.0,2241.0
31667,341.0,467.0,2241.0
31668,341.0,467.0,2241.0
31669,341.0,1655.0,2241.0
31670,341.0,1655.0,2241.0
31671,341.0,2532.0,2241.0
31672,341.0,968.0,2241.0
31673,341.0,968.0,2241.0
31674,341.0,968.0,2241.0
31675,341.0,968.0,2241.0
31676,341.0,859.0,2241.0
31677,341.0,859.0,2241.0
31678,341.0,579.0,2241.0
31679,341.0,579.0,2241.0
31680,341.0,579.0,2241.0
31681,341.0,579.0,2241.0
31682,341.0,579.0,2241.0
31683,300.0,579.0,2241.0
31684,300.0,579.0,2241.0
31685,300.0,579.0,2241.0
31686,300.0,579.0,2241.0
31687,300.0,579.0,2241.0
31688,300.0,579.0,2241.0
31689,300.0,579.0,2241.0
31690,300.0,579.0,2241.0
31691,300.0,579.0,2241.0
31692,300.0,579.0,2241.0
31693,300.0,579.0,2241.0
31694,300.0,579.0,2241.0
31695,300.0,579.0,2241.0
31696,300.0,579.0,2241.0
31697,300.0,579.0,2241.0
31698,300.0,579.0,2241.0
31699,300.0,579.0,2241.0
31700,300.0,579.0,2241.0
31701,300.0,579.0,2241.0
31702,300.0,579.0,2241.0
31703,300.0,579.0,2241.0
31704,300.0,1616.0,2241.0
31705,300.0,1616.0,2241.0
31706,300.0,949.0,2241.0
31707,235.0,949.0,2241.0
31708,235.0,949.0,2241.0
31709,506.0,949.0,2241.0
31710,205.0,949.0,2241.0
31711,205.0,949.0,2241.0
31712,761.0,803.0,2241.0
31713,761.0,803.0,2241.0
31714,761.0,803.0,2241.0
31715,761.0,803.0,965.0
31716,761.0,803.0,965.0
31717,761.0,803.0,965.0
31718,761.0,803.0,965.0
31719,761.0,803.0,965.0
31720,112.0,803.0,965.0
31721,112.0,803.0,965.0
31722,112.0,803.0,965.0
31723,112.0,1599.0,965.0
31724,112.0,1082.0,965.0
31725,556.0,1082.0,965.0
31726,556.0,1082.0,965.0
31727,556.0,1082.0,965.0
31728,556.0,1189.0,965.0
31729,556.0,1189.0,965.0
31730,556.0,1189.0,965.0
31731,556.0,1189.0,1014.0
31732,556.0,1189.0,1014.0
31733,556.0,1189.0,1014.0
31734,556.0,1189.0,1014.0
31735,556.0,1189.0,1014.0
31736,556.0,1189.0,1014.0
31737,556.0,1189.0,1014.0
31738,556.0,1189.0,1014.0
31739,556.0,1189.0,466.0
31740,556.0,1189.0,466.0
31741,556.0,1189.0,466.0
31742,556.0,1146.0,466.0
31743,556.0,1146.0,466.0
31744,556.0,223.0,466.0
31745,556.0,680.0,466.0
31746,556.0,686.0,466.0
31747,556.0,686.0,466.0
31748,556.0,657.0,466.0
31749,556.0,657.0,466.0
31750,556.0,657.0,466.0
31751,556.0,657.0,466.0
31752,363.0,657.0,466.0
31753,296.0,657.0,466.0
31754,296.0,657.0,466.0
31755,296.0,657.0,466.0
31756,300.0,657.0,466.0
31757,300.0,657.0,466.0
31758,300.0,657.0,466.0
31759,300.0,657.0,466.0
32948,135.0,777.0,146.0
32949,365.0,777.0,146.0
32950,365.0,777.0,146.0
32951,159.0,777.0,146.0
32952,159.0,777.0,146.0
32953,187.0,777.0,146.0
32954,187.0,777.0,146.0
32955,187.0,777.0,146.0
32956,146.0,777.0,146.0
32957,146.0,777.0,146.0
32958,155.0,777.0,146.0
32959,155.0,777.0,146.0
32960,155.0,777.0,146.0
32961,155.0,777.0,146.0
32962,155.0,777.0,146.0
32963,155.0,777.0,146.0
32964,155.0,777.0,146.0
32965,155.0,548.0,146.0
32966,155.0,548.0,146.0
32967,124.0,548.0,146.0
32968,124.0,383.0,146.0
32969,124.0,383.0,146.0
32970,124.0,431.0,146.0
32971,224.0,431.0,146.0
32972,224.0,489.0,146.0
32973,224.0,395.0,146.0
32974,224.0,395.0,340.0
32975,224.0,395.0,340.0
32976,224.0,395.0,340.0
32977,224.0,395.0,340.0
32978,224.0,395.0,340.0
32979,224.0,395.0,340.0
32980,224.0,395.0,340.0
32981,224.0,395.0,340.0
32982,224.0,395.0,340.0
32983,224.0,513.0,340.0
32984,224.0,591.0,340.0
32985,224.0,591.0,340.0
32986,224.0,591.0,340.0
32987,224.0,591.0,340.0
32988,224.0,478.0,340.0
32989,224.0,295.0,340.0
32990,224.0,295.0,340.0
32991,224.0,295.0,340.0
32992,224.0,295.0,340.0
32993,224.0,256.0,340.0
32994,224.0,256.0,340.0
32995,224.0,256.0,340.0
32996,224.0,256.0,340.0
32997,326.0,256.0,340.0
32998,326.0,256.0,340.0
32999,326.0,256.0,340.0
33000,222.0,256.0,340.0
33001,200.0,256.0,340.0
33002,200.0,256.0,340.0
33003,168.0,256.0,340.0
33004,168.0,256.0,340.0
33005,168.0,678.0,340.0
33006,168.0,678.0,340.0
33007,168.0,678.0,340.0
33008,168.0,678.0,340.0
33009,168.0,678.0,340.0
33010,168.0,678.0,340.0
33011,168.0,678.0,340.0
33012,168.0,678.0,340.0
33013,168.0,678.0,340.0
33014,168.0,678.0,340.0
33015,168.0,678.0,340.0
33016,231.0,678.0,340.0
33017,118.0,254.0,340.0
33018,118.0,254.0,340.0
33019,118.0,254.0,340.0
33020,326.0,254.0,340.0
33021,332.0,254.0,340.0
33022,332.0,254.0,340.0
33023,332.0,254.0,340.0
33024,332.0,254.0,340.0
33025,218.0,254.0,340.0
33026,8.0,254.0,340.0
33027,218.0,254.0,340.0
33028,218.0,254.0,340.0
33029,218.0,254.0,340.0
33030,218.0,254.0,340.0
33031,218.0,254.0,340.0
33032,218.0,254.0,340.0
33033,218.0,254.0,340.0
33034,218.0,254.0,340.0
33035,218.0,254.0,340.0
33036,218.0,254.0,340.0
33037,218.0,254.0,340.0
33038,218.0,254.0,340.0
33039,218.0,254.0,340.0
33040,218.0,254.0,340.0
33041,218.0,254.0,340.0
33042,218.0,254.0,340.0
33043,149.0,254.0,340.0
33044,382.0,254.0,340.0
33045,208.0,254.0,340.0
33046,208.0,254.0,340.0
33047,208.0,254.0,340.0
33048,208.0,254.0,340.0
33049,208.0,254.0,340.0
33050,208.0,254.0,340.0
33051,208.0,254.0,340.0
33052,208.0,254.0,340.0
33053,208.0,254.0,340.0
33054,208.0,254.0,340.0
33055,208.0,254.0,340.0
33056,199.0,254.0,340.0
33057,199.0,254.0,340.0
33058,227.0,254.0,340.0
33059,227.0,254.0,340.0
33060,227.0,254.0,340.0
33061,227.0,503.0,340.0
33062,227.0,503.0,340.0
33063,227.0,503.0,340.0
33064,227.0,503.0,340.0
33065,227.0,503.0,340.0
33066,227.0,503.0,340.0
33067,2227.0,193.0,340.0
33068,227.0,193.0,340.0
33069,227.0,193.0,340.0
33070,227.0,193.0,340.0
33071,227.0,193.0,340.0
33072,227.0,315.0,340.0
33073,227.0,893.0,275.0
33074,227.0,893.0,275.0
33075,227.0,893.0,237.0
33076,227.0,893.0,328.0
33077,227.0,893.0,328.0
33078,227.0,893.0,240.0
34731,342.0,476.0,214.0
34732,342.0,476.0,214.0
34733,342.0,476.0,214.0
34734,342.0,476.0,214.0
34735,342.0,476.0,214.0
34736,342.0,476.0,214.0
34737,342.0,476.0,214.0
34738,342.0,476.0,189.0
34739,342.0,476.0,189.0
34740,342.0,476.0,125.0
34741,224.0,250.0,126.0
34742,342.0,288.0,112.0
34743,342.0,288.0,112.0
34744,342.0,173.0,112.0
34745,342.0,482.0,112.0
34746,342.0,482.0,112.0
34747,476.0,482.0,112.0
34748,476.0,482.0,112.0
34749,476.0,251.0,112.0
34750,476.0,251.0,112.0
34751,476.0,134.0,112.0
34752,476.0,134.0,112.0
34753,476.0,134.0,112.0
34754,476.0,196.0,112.0
34755,476.0,462.0,112.0
34756,476.0,462.0,112.0
34757,476.0,462.0,112.0
34758,476.0,462.0,112.0
34759,476.0,462.0,112.0
34760,476.0,462.0,112.0
34761,476.0,400.0,112.0
34762,476.0,153.0,112.0
34763,476.0,413.0,119.0
34764,476.0,413.0,119.0
34765,476.0,413.0,119.0
34766,476.0,475.0,119.0
34767,476.0,475.0,119.0
34768,476.0,475.0,119.0
34769,476.0,475.0,119.0
34770,518.0,475.0,119.0
34771,518.0,475.0,119.0
34772,518.0,475.0,119.0
34773,518.0,475.0,119.0
34774,518.0,475.0,119.0
34775,518.0,475.0,119.0
34776,518.0,475.0,119.0
34777,518.0,475.0,141.0
34778,518.0,475.0,141.0
34779,518.0,475.0,141.0
34780,518.0,263.0,197.0
34781,4.0,263.0,197.0
34782,518.0,263.0,176.0
34783,518.0,375.0,176.0
34784,518.0,375.0,176.0
34785,518.0,375.0,176.0
34786,518.0,375.0,172.0
34787,518.0,375.0,172.0
34788,518.0,375.0,172.0
34789,428.0,375.0,155.0
34790,428.0,375.0,398.0
34791,428.0,375.0,398.0
34792,410.0,375.0,398.0
34793,410.0,375.0,137.0
34794,410.0,375.0,137.0
34795,410.0,375.0,137.0
34796,410.0,375.0,137.0
34797,410.0,375.0,79.0
34798,410.0,375.0,79.0
34799,410.0,375.0,79.0
34800,410.0,375.0,79.0
34801,410.0,375.0,150.0
34802,410.0,375.0,150.0
34803,410.0,375.0,150.0
34804,410.0,375.0,150.0
34805,410.0,375.0,150.0
34806,410.0,375.0,142.0
34807,410.0,375.0,142.0
34808,410.0,375.0,142.0
34809,410.0,375.0,137.0
34810,410.0,375.0,137.0
34811,410.0,375.0,316.0
34812,410.0,375.0,316.0
34813,410.0,375.0,316.0
34814,410.0,375.0,266.0
34815,410.0,375.0,188.0
34816,410.0,375.0,188.0
34817,410.0,375.0,140.0
34818,410.0,375.0,140.0
34819,410.0,375.0,230.0
34820,410.0,375.0,230.0
34821,410.0,375.0,230.0
34822,410.0,375.0,106.0
34823,410.0,375.0,106.0
34824,410.0,375.0,106.0
34825,410.0,375.0,106.0
34826,562.0,375.0,106.0
34827,562.0,375.0,106.0
34828,562.0,375.0,106.0
34829,488.0,375.0,106.0
34830,488.0,375.0,106.0
34831,471.0,375.0,106.0
34832,471.0,375.0,106.0
34833,471.0,375.0,106.0
34834,471.0,375.0,209.0
34835,471.0,375.0,209.0
34836,471.0,375.0,180.0
34837,471.0,375.0,180.0
34838,471.0,375.0,180.0
34839,471.0,375.0,180.0
34840,471.0,375.0,297.0
34841,471.0,375.0,297.0
34842,471.0,375.0,297.0
34843,484.0,375.0,297.0
34844,484.0,375.0,297.0
34845,484.0,375.0,297.0
34846,484.0,375.0,297.0
34847,484.0,375.0,297.0
34848,484.0,375.0,297.0
34849,484.0,375.0,297.0
34850,484.0,375.0,297.0
34851,484.0,375.0,297.0
34852,484.0,375.0,297.0
34853,484.0,425.0,297.0
34854,484.0,425.0,297.0
34855,484.0,234.0,297.0
34856,484.0,234.0,297.0
34857,484.0,234.0,297.0
34858,484.0,234.0,246.0
34859,484.0,234.0,246.0
34860,484.0,234.0,246.0
34861,484.0,234.0,246.0
34862,484.0,234.0,246.0
34863,484.0,234.0,179.0
34864,484.0,234.0,179.0
34865,484.0,234.0,179.0
34866,484.0,234.0,179.0
34867,484.0,234.0,179.0
34868,484.0,234.0,179.0
34869,484.0,234.0,179.0
34870,5141484.0,234.0,179.0
34871,444.0,234.0,179.0
34872,444.0,234.0,179.0
34873,444.0,234.0,126.0
36509,205.0,2181.0,3558.0
36510,903.0,2181.0,1902.0
36511,903.0,2181.0,1902.0
36512,903.0,2181.0,2655.0
36513,20.0,2181.0,2655.0
36514,903903.0,2181.0,2655.0
36515,903.0,2181.0,2655.0
36516,903.0,2181.0,2655.0
36517,903.0,2181.0,2655.0
36518,903.0,2181.0,2655.0
36519,903.0,2181.0,2655.0
36520,903.0,2181.0,2655.0
36521,903.0,2181.0,941.0
36522,903.0,2181.0,941.0
36523,903.0,2181.0,941.0
36524,903.0,2181.0,941.0
36525,509.0,2181.0,941.0
36526,509.0,2181.0,941.0
36527,509.0,2181.0,941.0
36528,509.0,2181.0,941.0
36529,509.0,2181.0,941.0
36530,509.0,2181.0,3485.0
36531,509.0,2181.0,3485.0
36532,509.0,2181.0,3485.0
36533,509.0,2181.0,3485.0
36534,509.0,2181.0,3485.0
36535,509.0,2181.0,3485.0
36536,509.0,761.0,3485.0
36537,509.0,761.0,3485.0
36538,509.0,2117.0,3485.0
36539,509.0,2117.0,3485.0
36540,509.0,2117.0,3485.0
36541,509.0,2117.0,3485.0
36542,840.0,2117.0,3485.0
36543,840.0,2117.0,3485.0
36544,840.0,1438.0,3485.0
36545,840.0,1865.0,3485.0
36546,840.0,1454.0,3485.0
36547,840.0,1454.0,3485.0
36548,840.0,1454.0,3485.0
36549,990.0,953.0,3485.0
36550,990.0,953.0,3485.0
36551,990.0,971.0,3485.0
36552,990.0,971.0,3485.0
36553,990.0,971.0,3485.0
36554,990.0,971.0,3485.0
36555,990.0,1219.0,3485.0
36556,990.0,1219.0,3485.0
36557,990.0,1219.0,2440.0
36558,990.0,1219.0,2440.0
36559,990.0,1219.0,1797.0
36560,990.0,1219.0,1797.0
36561,990.0,1219.0,3122.0
36562,99.0,1219.0,3122.0
36563,990.0,1219.0,3122.0
36564,990.0,1219.0,3122.0
36565,833.0,1219.0,3122.0
36566,833.0,1219.0,3122.0
36567,833.0,1219.0,3122.0
36568,833.0,1219.0,3122.0
36569,833.0,1219.0,3122.0
36570,833.0,1219.0,3320.0
36571,833.0,1602.0,3320.0
36572,833.0,1602.0,3320.0
36573,833.0,1602.0,3320.0
36574,833.0,1602.0,3320.0
36575,833.0,815.0,3320.0
36576,833.0,815.0,3320.0
36577,833.0,802.0,3320.0
36578,833.0,802.0,3320.0
36579,833.0,802.0,3320.0
36580,833.0,802.0,3320.0
36581,833.0,872.0,3320.0
36582,833.0,872.0,3320.0
36583,833.0,872.0,3320.0
36584,833.0,872.0,3320.0
36585,833.0,872.0,3320.0
36586,833.0,872.0,3320.0
36587,833.0,872.0,1772.0
36588,833.0,872.0,1772.0
36589,833.0,872.0,1772.0
36590,833.0,872.0,2621.0
36591,833.0,872.0,2621.0
36592,833.0,1237.0,2621.0
36593,833.0,1237.0,2621.0
36594,833.0,1237.0,2621.0
36595,833.0,1237.0,2621.0
36596,833.0,1495.0,1949.0
36597,833.0,1495.0,3398.0
36598,833.0,1495.0,1871.0
36599,833.0,1495.0,1871.0
36600,833.0,1095.0,1871.0
36601,833.0,828.0,1871.0
36602,833.0,828.0,1871.0
36603,833.0,828.0,2007.0
36604,833.0,828.0,2007.0
36605,833.0,828.0,2007.0
36606,833.0,969.0,2007.0
36607,833.0,969.0,2007.0
36608,833.0,969.0,2007.0
36609,833.0,852.0,2007.0
36610,833.0,852.0,2007.0
36611,173.0,852.0,2007.0
36612,173.0,852.0,2007.0
36613,173.0,852.0,2007.0
36614,173.0,1046.0,2007.0
36615,173.0,1046.0,2007.0
36616,173.0,1046.0,3416.0
36617,173.0,1046.0,3416.0
36618,173.0,1046.0,3416.0
36619,173.0,1046.0,3416.0
36620,173.0,1046.0,1742.0
36621,173.0,1396.0,1742.0
36622,173.0,1396.0,1742.0
36623,173.0,1396.0,1742.0
36624,173.0,1396.0,1742.0
36625,173.0,1734.0,1253.0
36626,3.0,1734.0,1253.0
36627,1773.0,1734.0,1253.0
36628,173.0,1734.0,1253.0
36629,173.0,1734.0,1253.0
36630,173.0,1734.0,1253.0
36631,173.0,1063.0,1253.0
36632,173.0,1063.0,1253.0
36633,173.0,1063.0,1253.0
36634,173.0,1063.0,1253.0
36635,173.0,988.0,1253.0
36636,173.0,988.0,1253.0
36637,173.0,988.0,1253.0
36638,173.0,988.0,1253.0
36639,318.0,988.0,1253.0
36640,318.0,988.0,1606.0
36641,318.0,988.0,1606.0
36642,318.0,988.0,1606.0
36643,318.0,988.0,1606.0
36644,318.0,988.0,1606.0
36645,318.0,988.0,1606.0
36646,318.0,988.0,1606.0
36647,318.0,988.0,1606.0
36648,869.0,988.0,1606.0
38426,636.0,2310.0,2786.0
38427,636.0,2310.0,2786.0
38428,636.0,2310.0,2786.0
38429,170.0,2310.0,2786.0
38430,170.0,2310.0,2786.0
38431,170.0,2310.0,738.0
38432,170.0,2310.0,738.0
38433,170.0,2310.0,738.0
38434,170.0,2310.0,738.0
38435,456.0,2310.0,738.0
38436,456.0,2310.0,738.0
38437,456.0,2310.0,3197.0
38438,456.0,2310.0,3197.0
38439,456.0,2310.0,2522.0
38440,456.0,2199.0,2522.0
38441,56.0,2199.0,2522.0
38442,456.0,2199.0,2522.0
38443,456.0,2199.0,2522.0
38444,456.0,2199.0,2522.0
38445,494.0,2199.0,2522.0
38446,582.0,2199.0,2522.0
38447,725.0,2199.0,1575.0
38448,773.0,2199.0,1575.0
38449,475.0,2199.0,1575.0
38450,475.0,2199.0,1575.0
38451,475.0,2199.0,1575.0
38452,475.0,2199.0,1575.0
38453,475.0,2199.0,1575.0
38454,475.0,2199.0,1837.0
38455,475.0,2199.0,2190.0
38456,475.0,2199.0,2190.0
38457,611.0,2199.0,2190.0
38458,611.0,2199.0,3025.0
38459,611.0,2199.0,3025.0
38460,40.0,2199.0,3025.0
38461,462.0,2199.0,3025.0
38462,462.0,1152.0,3025.0
38463,462.0,1152.0,3025.0
38464,462.0,1152.0,3025.0
38465,462.0,1152.0,3025.0
38466,462.0,1152.0,3025.0
38467,462.0,1152.0,3025.0
38468,462.0,1152.0,3025.0
38469,462.0,1152.0,3025.0
38470,462.0,1152.0,3025.0
38471,462.0,1152.0,3025.0
38472,462.0,1152.0,3025.0
38473,462.0,1152.0,3025.0
38474,2.0,1152.0,2061.0
38475,462.0,1152.0,2061.0
38476,462.0,1152.0,2061.0
38477,462.0,1314.0,2061.0
38478,462.0,1314.0,2061.0
38479,462.0,1314.0,2061.0
38480,462.0,1314.0,2061.0
38481,462.0,1314.0,2061.0
38482,462.0,1314.0,2061.0
38483,427.0,1314.0,2061.0
38484,427.0,1314.0,2061.0
38485,883.0,1314.0,2061.0
38486,1281.0,1314.0,2061.0
38487,600.0,1314.0,2061.0
38488,1268.0,1314.0,2061.0
38489,1268.0,1314.0,2061.0
38490,541.0,1314.0,2061.0
38491,541.0,1314.0,2061.0
38492,439.0,1314.0,2061.0
38493,439.0,1314.0,2061.0
38494,439.0,1314.0,2061.0
38495,869.0,1314.0,2061.0
38496,869.0,1314.0,2061.0
38497,869.0,1314.0,2061.0
38498,869.0,1314.0,2061.0
38499,869.0,1314.0,2061.0
38500,869.0,1314.0,2061.0
38501,1275.0,1314.0,2061.0
38502,1275.0,1314.0,2061.0
38503,1275.0,1314.0,2061.0
38504,1275.0,1314.0,2061.0
38505,1275.0,1314.0,2061.0
38506,1275.0,1314.0,2061.0
38507,836.0,1314.0,2061.0
38508,836.0,1314.0,2061.0
38509,745.0,1314.0,2061.0
38510,745.0,1314.0,2061.0
38511,745.0,1314.0,2061.0
38512,745.0,1183.0,2061.0
38513,745.0,1183.0,2061.0
38514,745.0,1183.0,2061.0
38515,745.0,1183.0,2061.0
38516,422.0,1183.0,2061.0
38517,1418.0,1183.0,2061.0
38518,1418.0,1209.0,2061.0
38519,1418.0,1209.0,2061.0
38520,1418.0,1209.0,2061.0
38521,1418.0,1209.0,2061.0
38522,1418.0,1209.0,2061.0
38523,1418.0,1209.0,2061.0
38524,1418.0,1209.0,2061.0
38525,1418.0,1209.0,2061.0
38526,1418.0,1209.0,2061.0
38527,1418.0,2641.0,2061.0
38528,839.0,2641.0,2061.0
38529,583.0,2641.0,2061.0
38530,583.0,2641.0,2061.0
38531,583.0,2641.0,2061.0
38532,1154.0,2641.0,2061.0
38533,1154.0,2641.0,2061.0
38534,1154.0,2641.0,2061.0
38535,1113.0,2641.0,2061.0
38536,1113.0,2641.0,2061.0
38537,419.0,2641.0,2061.0
38538,881.0,869.0,2061.0
38539,515.0,869.0,2061.0
38540,515.0,1551.0,2061.0
38541,866.0,1551.0,2061.0
38542,839.0,1551.0,2061.0
38543,881.0,1551.0,2061.0
38544,787.0,1551.0,2061.0
38545,787.0,656.0,2061.0
38546,437.0,656.0,2061.0
38547,681.0,972.0,2061.0
38548,681.0,972.0,2061.0
38549,681.0,972.0,2061.0
38550,665.0,972.0,2061.0
38551,727.0,972.0,2061.0
38552,727.0,972.0,2061.0
38553,727.0,972.0,2061.0
38554,727.0,558.0,2061.0
38555,727.0,558.0,2061.0
38556,727.0,1520.0,2061.0
38557,727.0,1520.0,2061.0
38558,727.0,1520.0,2061.0
38559,225.0,1520.0,2061.0
38560,225.0,1520.0,2061.0
38561,225.0,1520.0,2061.0
38562,225.0,1520.0,2061.0
38563,1073.0,1520.0,2061.0
38564,1073.0,1520.0,2061.0
38565,338.0,1520.0,2061.0
38566,747.0,1520.0,2061.0
40168,390.0,87.0,604.0
40169,390.0,87.0,604.0
40170,390.0,87.0,604.0
40171,390.0,87.0,604.0
40172,390.0,87.0,604.0
40173,390.0,87.0,604.0
40174,390.0,87.0,604.0
40175,390.0,87.0,604.0
40176,390.0,272.0,604.0
40177,390.0,272.0,604.0
40178,390.0,272.0,604.0
40179,390.0,272.0,604.0
40180,390.0,272.0,604.0
40181,390.0,272.0,604.0
40182,390.0,272.0,604.0
40183,390.0,272.0,604.0
40184,390.0,272.0,604.0
40185,390.0,272.0,604.0
40186,390.0,272.0,604.0
40187,390.0,272.0,604.0
40188,390.0,272.0,604.0
40189,390.0,272.0,604.0
40190,390.0,272.0,604.0
40191,390.0,272.0,604.0
40192,390.0,272.0,604.0
40193,390.0,180.0,604.0
40194,390.0,180.0,604.0
40195,390.0,180.0,604.0
40196,704.0,180.0,604.0
40197,704.0,180.0,604.0
40198,704.0,113.0,604.0
40199,704.0,232.0,604.0
40200,704.0,134.0,604.0
40201,704.0,134.0,604.0
40202,704.0,134.0,604.0
40203,704.0,134.0,604.0
40204,704.0,134.0,604.0
40205,704.0,134.0,604.0
40206,906.0,134.0,604.0
40207,906.0,134.0,528.0
40208,906.0,134.0,528.0
40209,906.0,134.0,528.0
40210,906.0,134.0,528.0
40211,906.0,134.0,528.0
40212,906.0,134.0,528.0
40213,906.0,134.0,528.0
40214,906.0,223.0,528.0
40215,906.0,137.0,528.0
40216,906.0,137.0,528.0
40217,906.0,137.0,528.0
40218,906.0,170.0,528.0
40219,906.0,170.0,528.0
40220,906.0,170.0,260.0
40221,906.0,170.0,260.0
40222,906.0,170.0,510.0
40223,906.0,170.0,510.0
40224,906.0,170.0,510.0
40225,906.0,170.0,510.0
40226,906.0,170.0,510.0
40227,906.0,170.0,510.0
40228,906.0,170.0,510.0
40229,906.0,170.0,510.0
40230,906.0,170.0,510.0
40231,906.0,170.0,510.0
40232,906.0,170.0,510.0
40233,906.0,170.0,510.0
40234,906.0,170.0,510.0
40235,906.0,170.0,510.0
40236,906.0,170.0,510.0
40237,1040.0,170.0,510.0
40238,1040.0,170.0,510.0
40239,1040.0,170.0,461.0
40240,1040.0,170.0,461.0
40241,1040.0,170.0,461.0
40242,1040.0,170.0,461.0
40243,1040.0,170.0,461.0
40244,1011.0,170.0,461.0
40245,1011.0,170.0,461.0
40246,1011.0,170.0,461.0
40247,1011.0,170.0,461.0
40248,1011.0,170.0,461.0
40249,1011.0,170.0,461.0
40250,1011.0,168.0,461.0
40251,503.0,168.0,461.0
40252,503.0,112.0,461.0
40253,960.0,112.0,461.0
40254,960.0,112.0,461.0
40255,960.0,112.0,461.0
40256,960.0,261.0,461.0
40257,960.0,261.0,461.0
40258,960.0,261.0,461.0
40259,960.0,261.0,461.0
40260,960.0,261.0,461.0
40261,960.0,188.0,461.0
40262,960.0,188.0,461.0
40263,960.0,188.0,461.0
40264,960.0,188.0,461.0
40265,960.0,188.0,604.0
40266,960.0,188.0,604.0
40267,960.0,117.0,604.0
40268,960.0,117.0,604.0
40269,960.0,117.0,604.0
40270,960.0,117.0,604.0
40271,960.0,117.0,604.0
40272,960.0,117.0,604.0
40273,1391.0,87.0,604.0
40274,1391.0,182.0,604.0
40275,1391.0,182.0,604.0
40276,1391.0,182.0,604.0
40277,874.0,152.0,604.0
40278,874.0,152.0,604.0
40279,1129.0,152.0,604.0
40280,1129.0,152.0,604.0
40281,642.0,347.0,604.0
40282,642.0,347.0,604.0
40283,642.0,347.0,604.0
40284,642.0,347.0,604.0
40285,957.0,347.0,604.0
40286,957.0,347.0,604.0
40287,957.0,347.0,604.0
40288,957.0,347.0,604.0
40289,957.0,347.0,604.0
40290,957.0,347.0,604.0
40291,957.0,132.0,604.0
40292,957.0,132.0,604.0
40293,957.0,132.0,604.0
40294,957.0,132.0,604.0
40295,957.0,145.0,604.0
40296,957.0,145.0,604.0
40297,957.0,145.0,604.0
40298,957.0,145.0,604.0
40299,957.0,145.0,604.0
40300,957.0,145.0,604.0
40301,957.0,145.0,604.0
40302,957.0,145.0,604.0
40303,957.0,145.0,604.0
40304,957.0,145.0,604.0
40305,957.0,145.0,604.0
40306,957.0,145.0,604.0
40307,957.0,145.0,604.0
40308,957.0,145.0,604.0
40309,957.0,145.0,604.0
40310,957.0,145.0,604.0
40311,957.0,145.0,604.0
40312,499.0,145.0,604.0
40313,499.0,145.0,604.0
40314,499.0,145.0,604.0
40315,499.0,145.0,604.0
40316,499.0,150.0,604.0
40317,499.0,150.0,604.0
40318,499.0,150.0,604.0
40319,499.0,150.0,604.0
40320,499.0,150.0,604.0
40321,499.0,150.0,604.0
41544,628.0,108.0,847.0
41545,628.0,108.0,847.0
41546,628.0,108.0,833.0
41547,628.0,108.0,833.0
41548,628.0,108.0,833.0
41549,474.0,108.0,833.0
41550,474.0,108.0,833.0
41551,474.0,108.0,833.0
41552,1236.0,108.0,833.0
41553,1236.0,108.0,833.0
41554,1236.0,108.0,833.0
41555,1236.0,108.0,833.0
41556,1236.0,108.0,833.0
41557,1236.0,108.0,833.0
41558,1236.0,108.0,833.0
41559,1236.0,237.0,833.0
41560,1236.0,139.0,833.0
41561,1236.0,169.0,833.0
41562,1236.0,169.0,833.0
41563,1236.0,169.0,833.0
41564,1236.0,169.0,833.0
41565,1236.0,169.0,833.0
41566,1391.0,169.0,833.0
41567,1391.0,169.0,833.0
41568,1391.0,169.0,833.0
41569,855.0,169.0,833.0
41570,855.0,264.0,833.0
41571,837.0,264.0,833.0
41572,837.0,264.0,833.0
41573,837.0,264.0,833.0
41574,837.0,264.0,833.0
41575,636.0,264.0,833.0
41576,636.0,264.0,833.0
41577,636.0,264.0,833.0
41578,636.0,264.0,833.0
41579,844.0,264.0,833.0
41580,844.0,264.0,833.0
41581,807.0,264.0,833.0
41582,807.0,264.0,833.0
41583,807.0,264.0,833.0
41584,807.0,264.0,833.0
41585,807.0,290.0,833.0
41586,807.0,290.0,833.0
41587,807.0,374.0,833.0
41588,807.0,374.0,833.0
41589,807.0,374.0,833.0
41590,807.0,34.0,833.0
41591,807.0,258.0,833.0
41592,807.0,258.0,833.0
41593,807.0,258.0,833.0
41594,807.0,190.0,833.0
41595,807.0,190.0,833.0
41596,807.0,334.0,833.0
41597,807.0,334.0,552.0
41598,807.0,334.0,552.0
41599,807.0,334.0,552.0
41600,807.0,334.0,552.0
41601,807.0,334.0,552.0
41602,807.0,334.0,260.0
41603,807.0,334.0,260.0
41604,807.0,334.0,1252.0
41605,807.0,334.0,1252.0
41606,807.0,334.0,1252.0
41607,807.0,334.0,1252.0
41608,807.0,334.0,1252.0
41609,807.0,132.0,1252.0
41610,1411.0,132.0,1252.0
41611,311.0,132.0,1252.0
41612,311.0,132.0,1252.0
41613,311.0,236.0,1252.0
41614,311.0,236.0,1252.0
41615,311.0,236.0,1252.0
41616,311.0,236.0,1252.0
41617,564.0,236.0,1252.0
41618,564.0,236.0,1252.0
41619,564.0,236.0,1252.0
41620,564.0,236.0,1252.0
41621,564.0,236.0,1252.0
41622,564.0,236.0,1252.0
41623,564.0,334.0,1252.0
41624,582.0,334.0,1252.0
41625,582.0,334.0,1252.0
41626,582.0,334.0,1252.0
41627,582.0,334.0,1252.0
41628,582.0,334.0,1252.0
41629,881.0,334.0,1252.0
41630,881.0,334.0,1252.0
41631,460.0,334.0,1252.0
41632,460.0,334.0,1252.0
41633,460.0,334.0,1252.0
41634,460.0,334.0,1252.0
41635,460.0,334.0,1252.0
41636,630.0,334.0,1252.0
41637,630.0,334.0,1252.0
41638,559.0,334.0,1252.0
41639,559.0,334.0,1252.0
41640,247.0,334.0,1252.0
41641,247.0,334.0,1252.0
41642,247.0,334.0,1252.0
43326,3315.0,896.0,1291.0
43327,2692.0,896.0,1291.0
43328,2692.0,896.0,1291.0
43329,2692.0,896.0,825.0
43330,2939.0,896.0,825.0
43331,2939.0,896.0,825.0
43332,2939.0,896.0,825.0
43333,2939.0,896.0,825.0
43334,2939.0,896.0,1336.0
43335,2939.0,896.0,2132.0
43336,2939.0,896.0,694.0
43337,2939.0,896.0,694.0
43338,2939.0,896.0,1038.0
43339,2939.0,896.0,1038.0
43340,2939.0,896.0,920.0
43341,2939.0,896.0,920.0
43342,2939.0,896.0,920.0
43343,3983.0,896.0,920.0
43344,3983.0,896.0,920.0
43345,3983.0,896.0,920.0
43346,4116.0,896.0,920.0
43347,4116.0,896.0,920.0
43348,4116.0,896.0,920.0
43349,4116.0,896.0,920.0
43350,155553.0,896.0,920.0
43351,1553.0,896.0,920.0
43352,1553.0,896.0,920.0
43353,1553.0,896.0,920.0
43354,1553.0,896.0,920.0
43355,1553.0,896.0,920.0
43356,1553.0,896.0,920.0
43357,1553.0,896.0,920.0
43358,1553.0,896.0,537.0
43359,1553.0,896.0,779.0
43360,2633.0,896.0,779.0
43361,155553.0,896.0,700.0
43362,1553.0,896.0,700.0
43363,1804.0,896.0,700.0
43364,3543.0,3326.0,1064.0
43365,3543.0,3326.0,1064.0
43366,3543.0,3326.0,1064.0
43367,3543.0,1830.0,1064.0
43368,3543.0,1830.0,1064.0
43369,3543.0,1588.0,1064.0
43370,3543.0,1588.0,1064.0
43371,3353.0,1495.0,1064.0
43372,3353.0,1495.0,1064.0
43373,3353.0,2471.0,1064.0
43374,3353.0,2471.0,1064.0
43375,1684.0,2471.0,1064.0
43376,1684.0,2471.0,1064.0
43377,1684.0,2471.0,1064.0
43378,1684.0,2471.0,1064.0
43379,1684.0,2471.0,1064.0
43380,1684.0,1263.0,1064.0
43381,1684.0,1263.0,1064.0
43382,1684.0,1430.0,1064.0
43383,1684.0,1430.0,1064.0
43384,2354.0,1096.0,1064.0
43385,2354.0,1096.0,591.0
43386,2354.0,1096.0,215.0
43387,2354.0,1096.0,215.0
43388,2354.0,1096.0,1131.0
43389,2354.0,1096.0,585.0
43390,2354.0,1520.0,585.0
43391,2354.0,1520.0,585.0
43392,2354.0,1520.0,585.0
43393,2354.0,1520.0,585.0
43394,3181.0,1520.0,585.0
43395,3181.0,1520.0,585.0
43396,1808.0,1520.0,581.0
43397,1808.0,1520.0,945.0
43398,1808.0,1520.0,945.0
43399,1808.0,1520.0,945.0
43400,1808.0,1520.0,945.0
43401,1808.0,1520.0,1298.0
43402,1808.0,1520.0,1298.0
43403,1808.0,1520.0,1298.0
43404,1808.0,1520.0,1105.0
43405,108.0,1520.0,1105.0
43406,181808.0,1520.0,1105.0
43407,1808.0,1520.0,1105.0
43408,1808.0,1520.0,1105.0
43409,1808.0,1520.0,1105.0
43410,1808.0,1520.0,1307.0
43411,1808.0,1520.0,1307.0
43412,1808.0,1520.0,1307.0
43413,1808.0,2602.0,1307.0
43414,1808.0,2602.0,1307.0
43415,1808.0,2602.0,1307.0
43416,1808.0,2559.0,1307.0
43417,1808.0,2559.0,1372.0
43418,1808.0,2147.0,1372.0
43419,1808.0,2147.0,1372.0
43420,1808.0,2147.0,1372.0
43421,1808.0,1490.0,1372.0
43422,1754.0,1490.0,1372.0
43423,10.0,1490.0,1372.0
43424,2098.0,1490.0,1516.0
43425,2098.0,1490.0,1516.0
43426,2098.0,1490.0,1164.0
43427,2098.0,1490.0,1164.0
43428,2098.0,1490.0,1164.0
43429,2098.0,1490.0,1164.0
43430,2098.0,1295.0,1164.0
43431,2098.0,1295.0,1164.0
43432,2098.0,1295.0,614.0
43433,2098.0,1295.0,614.0
43434,2098.0,1295.0,614.0
43435,2098.0,1295.0,614.0
43436,2098.0,2223.0,614.0
43437,2098.0,2223.0,614.0
43438,2098.0,2223.0,1058.0
43439,2098.0,2223.0,1058.0
43440,2098.0,2223.0,1058.0
43441,2098.0,2223.0,1058.0
43442,2098.0,2363.0,1058.0
43443,2090.0,2363.0,1058.0
43444,3517.0,2363.0,1058.0
43445,3517.0,2363.0,1058.0
43446,3517.0,2363.0,1058.0
43447,3517.0,2363.0,1058.0
43448,3517.0,1577.0,1058.0
43449,3517.0,1577.0,1058.0
43450,3517.0,1577.0,1058.0
43451,3517.0,2172.0,1058.0
43452,3517.0,2172.0,1058.0
43453,3517.0,2172.0,1058.0
43454,3517.0,2172.0,1058.0
43455,3517.0,2172.0,1058.0
43456,3517.0,2172.0,1058.0
43457,3517.0,2172.0,1058.0
43458,3517.0,2172.0,1058.0
43459,3517.0,1614.0,1058.0
43460,3517.0,1614.0,1058.0
43461,3517.0,965.0,1058.0
43462,3517.0,965.0,1058.0
43463,3517.0,1330.0,1058.0
43464,3517.0,1436.0,1058.0
43465,3517.0,1436.0,1058.0
45269,2042.0,1472.0,553.0
45270,2042.0,1472.0,553.0
45271,2042.0,1660.0,553.0
45272,2042.0,1660.0,553.0
45273,2042.0,1660.0,553.0
45274,2042.0,1660.0,553.0
45275,2042.0,1660.0,553.0
45276,2042.0,1660.0,553.0
45277,2042.0,1660.0,553.0
45278,2042.0,1660.0,553.0
45279,1615.0,1660.0,553.0
45280,1615.0,1660.0,553.0
45281,1615.0,1660.0,553.0
45282,1615.0,1660.0,553.0
45283,1615.0,1660.0,553.0
45284,1615.0,1660.0,553.0
45285,1615.0,1660.0,553.0
45286,1615.0,1660.0,553.0
45287,1615.0,1660.0,553.0
45288,1615.0,1660.0,553.0
45289,1615.0,1660.0,553.0
45290,1615.0,1660.0,553.0
45291,1615.0,2397.0,553.0
45292,1615.0,2397.0,553.0
45293,1615.0,2397.0,553.0
45294,1615.0,2397.0,553.0
45295,1615.0,2397.0,553.0
45296,1615.0,2397.0,553.0
45297,1615.0,533.0,553.0
45298,1615.0,533.0,553.0
45299,1615.0,533.0,553.0
45300,1615.0,533.0,1025.0
45301,1615.0,533.0,969.0
45302,1615.0,533.0,969.0
45303,1615.0,533.0,969.0
45304,1615.0,533.0,969.0
45305,1615.0,533.0,807.0
45306,1615.0,533.0,807.0
45307,1615.0,533.0,807.0
45308,115.0,533.0,807.0
45309,16615.0,533.0,807.0
45310,1615.0,533.0,807.0
45311,1615.0,533.0,807.0
45312,115.0,533.0,807.0
45313,16615.0,533.0,807.0
45314,1615.0,533.0,807.0
45315,1615.0,533.0,807.0
45316,1615.0,533.0,807.0
45317,1615.0,533.0,807.0
45318,1615.0,533.0,807.0
45319,1615.0,533.0,807.0
45320,1615.0,533.0,807.0
45321,1615.0,533.0,807.0
45322,1615.0,533.0,807.0
45323,1615.0,533.0,807.0
45324,1615.0,533.0,807.0
45325,1615.0,533.0,807.0
45326,1615.0,533.0,807.0
45327,1615.0,533.0,807.0
45328,1615.0,533.0,778.0
45329,2184.0,533.0,778.0
45330,2184.0,533.0,778.0
45331,2184.0,533.0,778.0
45332,2184.0,533.0,778.0
45333,2184.0,533.0,778.0
45334,2184.0,533.0,778.0
45335,2184.0,533.0,778.0
45336,2184.0,533.0,778.0
45337,2184.0,533.0,778.0
45338,2184.0,533.0,778.0
45339,2184.0,533.0,778.0
45340,2184.0,533.0,778.0
45341,2184.0,533.0,778.0
45342,2184.0,533.0,778.0
45343,2184.0,533.0,778.0
45344,2378.0,533.0,778.0
45345,2378.0,533.0,778.0
45346,2378.0,533.0,778.0
45347,2378.0,533.0,778.0
45348,2378.0,533.0,778.0
45349,2378.0,533.0,778.0
45350,2378.0,533.0,778.0
45351,2378.0,533.0,778.0
45352,2378.0,533.0,778.0
45353,2378.0,2292.0,778.0
45354,2378.0,2292.0,778.0
45355,2378.0,2292.0,778.0
45356,2378.0,2292.0,778.0
45357,2114.0,2292.0,778.0
45358,2114.0,2292.0,778.0
45359,2114.0,2292.0,778.0
45360,4030.0,2292.0,778.0
45361,4030.0,2292.0,778.0
45362,1079.0,2292.0,778.0
45363,1079.0,2292.0,778.0
45364,1079.0,2292.0,778.0
45365,2370.0,2292.0,778.0
45366,101079.0,2292.0,778.0
45367,1079.0,2292.0,778.0
45368,1079.0,2292.0,778.0
45369,1079.0,2292.0,778.0
45370,1079.0,2292.0,778.0
45371,1079.0,2292.0,778.0
45372,1079.0,2292.0,778.0
45373,1079.0,2292.0,778.0
45374,1079.0,2292.0,778.0
45375,1079.0,2292.0,778.0
45376,1079.0,2292.0,778.0
45377,1079.0,2292.0,778.0
45378,1079.0,2292.0,778.0
45379,1079.0,2292.0,778.0
45380,1079.0,2292.0,778.0
45381,1079.0,1745.0,778.0
45382,3750.0,1745.0,778.0
45383,3750.0,1745.0,778.0
45384,3750.0,1745.0,778.0
45385,3750.0,1745.0,778.0
45386,3750.0,1745.0,778.0
45387,3750.0,1745.0,778.0
45388,3750.0,1745.0,778.0
45389,3750.0,1745.0,778.0
45390,3750.0,1745.0,778.0
45391,3750.0,1745.0,778.0
45392,3750.0,1745.0,778.0
45393,3750.0,1745.0,778.0
45394,3750.0,1745.0,778.0
45395,3750.0,1745.0,778.0
45396,3750.0,1745.0,778.0
45397,3750.0,1745.0,778.0
45398,2648.0,1745.0,778.0
45399,2648.0,1745.0,778.0
45400,508.0,1745.0,778.0
45401,1296.0,1745.0,778.0
45402,1296.0,1745.0,778.0
45403,1296.0,1745.0,778.0
45404,1296.0,1745.0,778.0
47016,634.0,687.0,108.0
47017,634.0,1026.0,108.0
47018,634.0,1266.0,108.0
47019,634.0,1266.0,108.0
47020,634.0,1266.0,273.0
47021,634.0,1266.0,223.0
47022,634.0,1266.0,223.0
47023,634.0,1266.0,498.0
47024,634.0,1266.0,351.0
47025,634.0,1266.0,351.0
47026,634.0,1266.0,351.0
47027,634.0,1266.0,351.0
47028,634.0,1266.0,351.0
47029,634.0,1266.0,351.0
47030,634.0,1266.0,351.0
47031,634.0,1266.0,351.0
47032,634.0,1266.0,351.0
47033,634.0,1266.0,351.0
47034,634.0,1266.0,351.0
47035,634.0,1266.0,145.0
47036,634.0,1266.0,145.0
47037,634.0,1266.0,145.0
47038,634.0,1266.0,145.0
47039,634.0,1266.0,145.0
47040,634.0,1408.0,552.0
47041,634.0,1408.0,552.0
47042,634.0,1408.0,552.0
47043,551.0,1408.0,552.0
47044,551.0,1408.0,226.0
47045,551.0,561.0,226.0
47046,551.0,561.0,228.0
47047,551.0,561.0,294.0
47048,551.0,561.0,294.0
47049,543.0,561.0,294.0
47050,543.0,561.0,294.0
47051,543.0,561.0,294.0
47052,543.0,561.0,294.0
47053,543.0,561.0,294.0
47054,543.0,561.0,294.0
47055,543.0,737.0,303.0
47056,543.0,299.0,303.0
47057,543.0,299.0,303.0
47058,5443.0,299.0,433.0
47059,543.0,915.0,433.0
47060,543.0,915.0,433.0
47061,543.0,968.0,433.0
47062,543.0,968.0,240.0
47063,543.0,968.0,240.0
47064,543.0,968.0,109.0
47065,543.0,968.0,121.0
47066,543.0,968.0,121.0
47067,543.0,968.0,122.0
47068,543.0,968.0,285.0
47069,543.0,968.0,285.0
47070,543.0,968.0,285.0
47071,543.0,968.0,285.0
47072,543.0,968.0,422.0
47073,543.0,968.0,422.0
47074,543.0,968.0,422.0
47075,543.0,1222.0,422.0
47076,543.0,1222.0,422.0
47077,543.0,1222.0,422.0
47078,543.0,1222.0,422.0
47079,543.0,1222.0,422.0
47080,543.0,1222.0,422.0
47081,543.0,1222.0,422.0
47082,543.0,1222.0,325.0
47083,543.0,1222.0,325.0
47084,543.0,1222.0,325.0
47085,543.0,1222.0,325.0
47086,543.0,1222.0,325.0
47087,543.0,1222.0,554.0
47088,543.0,1222.0,554.0
47089,543.0,1222.0,408.0
47090,543.0,1222.0,294.0
47091,543.0,1222.0,458.0
47092,543.0,1222.0,458.0
47093,543.0,1222.0,458.0
47094,543.0,1222.0,458.0
47095,543.0,1222.0,458.0
47096,543.0,1222.0,458.0
47097,543.0,1222.0,458.0
47098,543.0,1222.0,458.0
47099,543.0,1222.0,251.0
47100,543.0,1222.0,375.0
47101,543.0,1222.0,375.0
47102,543.0,1222.0,375.0
47103,543.0,1222.0,375.0
47104,543.0,1222.0,375.0
47105,543.0,1222.0,375.0
47106,543.0,1222.0,375.0
47107,543.0,1222.0,375.0
47108,543.0,1222.0,375.0
47109,543.0,1222.0,307.0
47110,543.0,1222.0,307.0
47111,543.0,1222.0,307.0
47112,543.0,1222.0,136.0
47113,543.0,1222.0,136.0
47114,543.0,1222.0,158.0
47115,543.0,1222.0,158.0
47116,543.0,1222.0,158.0
47117,543.0,1222.0,515.0
47118,543.0,1222.0,515.0
47119,543.0,1222.0,335.0
47120,543.0,1222.0,335.0
47121,543.0,1222.0,335.0
47122,543.0,1222.0,77.0
47123,543.0,1222.0,77.0
47124,543.0,1222.0,646.0
47125,543.0,1222.0,646.0
47126,543.0,1222.0,646.0
47127,543.0,1222.0,646.0
47128,543.0,1222.0,646.0
47129,543.0,1222.0,646.0
47130,543.0,469.0,646.0
47131,543.0,469.0,646.0
47132,543.0,469.0,646.0
47133,543.0,469.0,646.0
47134,543.0,1118.0,646.0
47135,543.0,1189.0,646.0
47136,543.0,1189.0,646.0
47137,543.0,1189.0,646.0
47138,543.0,173.0,646.0
47139,543.0,173.0,127.0
47140,543.0,173.0,189.0
47141,543.0,173.0,189.0
47142,543.0,173.0,262.0
47143,543.0,173.0,262.0
47144,543.0,173.0,262.0
47145,543.0,173.0,262.0
47146,543.0,1120.0,262.0
47147,543.0,1120.0,262.0
47148,543.0,1120.0,262.0
47149,543.0,1120.0,262.0
47150,543.0,1120.0,262.0
47151,543.0,1120.0,262.0
47152,543.0,1120.0,262.0
48486,358.0,141.0,550.0
48487,358.0,159.0,550.0
48488,358.0,159.0,550.0
48489,358.0,159.0,550.0
48490,358.0,159.0,550.0
48491,358.0,159.0,550.0
48492,358.0,159.0,550.0
48493,358.0,159.0,550.0
48494,358.0,159.0,550.0
48495,358.0,159.0,550.0
48496,358.0,159.0,550.0
48497,358.0,159.0,550.0
48498,358.0,159.0,550.0
48499,358.0,149.0,550.0
48500,946.0,1207.0,583.0
48501,946.0,1207.0,677.0
48502,946.0,232.0,677.0
48503,946.0,232.0,677.0
48504,946.0,232.0,677.0
48505,1462.0,232.0,677.0
48506,1462.0,232.0,677.0
48507,1462.0,232.0,677.0
48508,1462.0,232.0,677.0
48509,1462.0,232.0,677.0
48510,1462.0,232.0,677.0
48511,1462.0,232.0,677.0
48512,1462.0,232.0,677.0
48513,1462.0,232.0,677.0
48514,1462.0,96.0,677.0
48515,1462.0,96.0,677.0
48516,1462.0,116.0,677.0
48517,1462.0,219.0,677.0
48518,1462.0,219.0,677.0
48519,1462.0,219.0,677.0
48520,1462.0,219.0,677.0
48521,781.0,219.0,677.0
48522,781.0,219.0,677.0
48523,781.0,397.0,677.0
48524,781.0,397.0,677.0
48525,781.0,397.0,677.0
48526,781.0,397.0,677.0
48527,832.0,96.0,677.0
48528,832.0,96.0,677.0
48529,977.0,96.0,677.0
48530,977.0,96.0,677.0
48531,977.0,84.0,677.0
48532,977.0,229.0,677.0
48533,977.0,229.0,677.0
48534,895.0,229.0,677.0
48535,895.0,229.0,677.0
48536,895.0,229.0,677.0
48537,551.0,229.0,677.0
48538,296.0,229.0,677.0
48539,296.0,229.0,677.0
48540,1146.0,229.0,677.0
48541,1146.0,229.0,677.0
48542,1146.0,229.0,677.0
48543,1146.0,178.0,677.0
48544,1146.0,178.0,677.0
48545,1146.0,178.0,677.0
48546,1146.0,178.0,677.0
48547,1146.0,178.0,677.0
48548,1146.0,178.0,677.0
48549,1146.0,197.0,677.0
48550,1146.0,94.0,677.0
48551,1146.0,94.0,677.0
48552,1146.0,171.0,677.0
48553,1146.0,171.0,677.0
48554,1146.0,171.0,677.0
48555,1146.0,171.0,677.0
48556,1146.0,171.0,677.0
48557,1146.0,171.0,677.0
48558,1146.0,171.0,677.0
48559,1100.0,171.0,677.0
48560,146.0,171.0,677.0
48561,1146.0,171.0,677.0
48562,1146.0,171.0,677.0
48563,1146.0,171.0,677.0
48564,1146.0,171.0,677.0
48565,1146.0,171.0,677.0
48566,1146.0,171.0,677.0
48567,1146.0,171.0,677.0
48568,1146.0,171.0,677.0
48569,1146.0,171.0,677.0
48570,1146.0,171.0,677.0
48571,1146.0,171.0,677.0
48572,1146.0,171.0,677.0
48573,1146.0,171.0,677.0
48574,1146.0,171.0,677.0
48575,1146.0,171.0,677.0
48576,1146.0,171.0,677.0
48577,110.0,171.0,677.0
48578,1146.0,171.0,677.0
48579,1146.0,171.0,677.0
48580,1146.0,171.0,677.0
48581,1146.0,171.0,677.0
48582,1146.0,171.0,677.0
48583,1146.0,171.0,677.0
48584,1146.0,171.0,677.0
48585,1146.0,171.0,677.0
48586,1146.0,171.0,677.0
48587,1146.0,171.0,677.0
48588,1146.0,171.0,677.0
48589,1146.0,171.0,677.0
48590,1146.0,171.0,677.0
48591,1146.0,85.0,677.0
48592,1146.0,85.0,677.0
48593,1146.0,206.0,677.0
48594,1146.0,206.0,677.0
48595,1146.0,206.0,677.0
48596,1146.0,206.0,677.0
48597,1146.0,206.0,677.0
56224,1218.0,1195.0,4004.0
56225,1218.0,1195.0,4004.0
56226,1218.0,1195.0,4004.0
56227,1218.0,1195.0,2891.0
56228,1218.0,1195.0,2891.0
56229,1218.0,1195.0,2891.0
56230,1218.0,11951195.0,2891.0
56231,2049.0,353.0,2891.0
56232,1052.0,1353.0,2891.0
56233,1052.0,1353.0,2891.0
56234,1052.0,1353.0,2891.0
56235,1052.0,1353.0,2891.0
56236,1052.0,1353.0,2891.0
56237,1052.0,1353.0,2891.0
56238,1052.0,1353.0,2891.0
56239,668.0,1353.0,2891.0
56240,668.0,1353.0,2891.0
56241,668.0,964.0,2891.0
56242,1099.0,964.0,2891.0
56243,1099.0,964.0,2891.0
56244,743.0,964.0,2891.0
56245,743.0,964.0,2891.0
56246,743.0,964.0,2891.0
56247,1520.0,964.0,2891.0
56248,1520.0,964.0,2891.0
56249,1490.0,964.0,2891.0
56250,1490.0,964.0,2891.0
56251,1490.0,964.0,1638.0
56252,1490.0,964.0,1638.0
56253,1490.0,964.0,1638.0
56254,1490.0,964.0,1638.0
56255,1490.0,964.0,1638.0
56256,2166.0,964.0,1638.0
56257,2166.0,964.0,1638.0
56258,2840.0,964.0,1638.0
56259,2840.0,964.0,1638.0
56260,2840.0,964.0,1638.0
56261,2840.0,964.0,1638.0
56262,2840.0,964.0,1638.0
56263,2840.0,964.0,1638.0
56264,2840.0,964.0,1638.0
56265,2840.0,964.0,1638.0
56266,2840.0,902.0,1638.0
56267,2840.0,902.0,1638.0
56268,2840.0,902.0,1633.0
56269,2840.0,902.0,1633.0
56270,2840.0,902.0,1633.0
56271,2840.0,902.0,1633.0
56272,2840.0,902.0,1633.0
56273,2840.0,902.0,1633.0
56274,2840.0,902.0,1633.0
56275,2840.0,902.0,1633.0
56276,2840.0,902.0,1633.0
56277,2840.0,902.0,1633.0
56278,2257.0,902.0,1633.0
56279,3542.0,902.0,1633.0
56280,3542.0,902.0,1633.0
56281,3542.0,902.0,1633.0
56282,3542.0,902.0,1633.0
56283,3542.0,902.0,1633.0
56284,3542.0,902.0,1633.0
56285,3542.0,902.0,1633.0
56286,3542.0,902.0,1633.0
56287,3542.0,902.0,1633.0
56288,2888.0,902.0,1633.0
56289,2888.0,902.0,2844.0
56290,411.0,902.0,2844.0
56291,945.0,902.0,2844.0
56292,945.0,902.0,2844.0
56293,945.0,902.0,2844.0
56294,945.0,902.0,2844.0
56295,945.0,902.0,2844.0
56296,945.0,902.0,2844.0
56297,2843.0,902.0,2844.0
56298,2843.0,902.0,2844.0
56299,2843.0,902.0,2844.0
56300,2843.0,902.0,2844.0
56301,2843.0,902.0,2844.0
56302,2843.0,902.0,2844.0
56303,2843.0,902.0,2844.0
56304,2843.0,902.0,3061.0
56305,2843.0,902.0,3061.0
56306,2843.0,902.0,3061.0
56307,2218.0,902.0,3061.0
56308,1557.0,902.0,3061.0
56309,1557.0,902.0,3061.0
56310,1557.0,902.0,3061.0
56311,1557.0,902.0,3061.0
56312,1557.0,902.0,3061.0
56313,557.0,902.0,3061.0
56314,1557.0,902.0,3061.0
56315,1557.0,902.0,3061.0
56316,1557.0,902.0,3061.0
56317,1557.0,902.0,3061.0
56318,1557.0,902.0,3061.0
56319,1557.0,902.0,3061.0
56320,1718.0,902.0,3061.0
56321,1718.0,902.0,3061.0
56322,1551718.0,902.0,3061.0
56323,11718.0,902.0,3061.0
56324,1363.0,902.0,3061.0
56325,1363.0,902.0,3061.0
56326,1963.0,902.0,3061.0
56327,1963.0,902.0,3061.0
56328,1963.0,902.0,3061.0
56329,1963.0,902.0,3061.0
56330,1963.0,902.0,3061.0
56331,1963.0,902.0,3061.0
56332,1963.0,902.0,3061.0
56333,1963.0,902.0,3061.0
56334,1963.0,902.0,3061.0
56335,1963.0,902.0,3061.0
56336,1963.0,902.0,3061.0
56337,1963.0,902.0,3061.0
56338,1963.0,902.0,3061.0
56339,1963.0,902.0,3061.0
56340,2458.0,902.0,3061.0
56341,2458.0,902.0,3061.0
56342,2458.0,902.0,3061.0
56343,2458.0,902.0,3061.0
56344,824.0,902.0,3061.0
56345,824.0,902.0,3061.0
56346,824.0,902.0,3061.0
56347,824.0,902.0,3061.0
56348,824.0,902.0,3061.0
56349,824.0,902.0,3061.0
56350,824.0,902.0,3061.0
56351,824.0,902.0,3061.0
58061,2165.0,1315.0,3322.0
58062,2165.0,1315.0,3322.0
58063,3125.0,1315.0,3322.0
58064,3125.0,1315.0,3322.0
58065,3125.0,1315.0,3322.0
58066,3125.0,1315.0,3322.0
58067,3125.0,1315.0,3322.0
58068,3125.0,1315.0,3322.0
58069,3125.0,1315.0,3322.0
58070,3125.0,1315.0,3322.0
58071,3125.0,1315.0,3559.0
58072,3125.0,1315.0,2242.0
58073,1757.0,1315.0,1843.0
58074,1202.0,1315.0,1843.0
58075,120.0,1315.0,2067.0
58076,1202.0,1315.0,2067.0
58077,1202.0,1315.0,2555.0
58078,1202.0,1315.0,4730.0
58079,1202.0,1315.0,4730.0
58080,1202.0,1315.0,4730.0
58081,1202.0,1315.0,4730.0
58082,1202.0,581.0,4730.0
58083,1202.0,581.0,4730.0
58084,1202.0,581.0,1978.0
58085,2339.0,581.0,1978.0
58086,2339.0,581.0,3125.0
58087,2339.0,581.0,3125.0
58088,2339.0,581.0,3125.0
58089,2339.0,581.0,3125.0
58090,2339.0,581.0,3125.0
58091,2863.0,581.0,895.0
58092,2863.0,581.0,1382.0
58093,2863.0,581.0,1382.0
58094,2863.0,581.0,1382.0
58095,2863.0,581.0,1398.0
58096,2863.0,742.0,1421.0
58097,2863.0,742.0,1421.0
58098,2863.0,742.0,1421.0
58099,2863.0,742.0,1421.0
58100,1789.0,742.0,1421.0
58101,1789.0,742.0,1421.0
58102,1789.0,742.0,1421.0
58103,1789.0,742.0,1421.0
58104,1789.0,742.0,1421.0
58105,1789.0,742.0,1421.0
58106,1789.0,742.0,1421.0
58107,1789.0,927.0,2763.0
58108,1789.0,927.0,2763.0
58109,1789.0,927.0,2763.0
58110,1789.0,927.0,2763.0
58111,1789.0,927.0,2763.0
58112,1789.0,927.0,1653.0
58113,1789.0,927.0,2122.0
58114,1789.0,927.0,2122.0
58115,1789.0,927.0,2122.0
58116,1789.0,927.0,2122.0
58117,1789.0,927.0,2373.0
58118,1789.0,927.0,2373.0
58119,1789.0,927.0,2411.0
58120,1789.0,927.0,2411.0
58121,1789.0,927.0,2411.0
58122,1789.0,927.0,2411.0
58123,1789.0,927.0,2411.0
58124,1789.0,927.0,2411.0
58125,1789.0,927.0,1529.0
58126,1789.0,955.0,2307.0
58127,178789.0,955.0,2741.0
58128,11789.0,926.0,2741.0
58129,1789.0,926.0,2741.0
58130,1789.0,926.0,1839.0
58131,1789.0,625.0,1157.0
58132,1948.0,625.0,1157.0
58133,1948.0,625.0,1157.0
58134,1948.0,625.0,1157.0
58135,1948.0,625.0,1157.0
58136,1948.0,625.0,2409.0
58137,973.0,625.0,2409.0
58138,973.0,625.0,2409.0
58139,973.0,1193.0,2409.0
58140,973.0,1193.0,2409.0
58141,9773.0,582.0,2409.0
58142,973.0,582.0,2409.0
58143,973.0,582.0,2409.0
58144,973.0,582.0,2544.0
58145,973.0,582.0,2544.0
58146,973.0,582.0,2544.0
58147,973.0,582.0,2544.0
58148,2044.0,582.0,2544.0
58149,2044.0,582.0,2544.0
58150,1592.0,582.0,2544.0
58151,1592.0,582.0,2544.0
58152,1592.0,582.0,1943.0
58153,1592.0,582.0,1943.0
58154,1592.0,582.0,1943.0
58155,1665.0,582.0,1381.0
58156,1665.0,582.0,1381.0
58157,1665.0,1388.0,1381.0
58158,1665.0,1388.0,1381.0
58159,1665.0,305.0,1381.0
58160,1665.0,305.0,1381.0
58161,1665.0,873.0,1381.0
58162,1665.0,873.0,1381.0
58163,1665.0,873.0,1381.0
58164,1665.0,873.0,1381.0
58165,1665.0,873.0,1381.0
58166,1665.0,873.0,1381.0
58167,1665.0,866.0,1381.0
58168,665.0,866.0,1381.0
58169,1665.0,866.0,4444.0
58170,1665.0,866.0,4444.0
58171,1665.0,866.0,4444.0
58172,16665.0,866.0,4444.0
58173,1665.0,556.0,4444.0
58174,1665.0,556.0,4444.0
58175,1665.0,556.0,4444.0
58176,1665.0,556.0,4444.0
58177,1665.0,556.0,4444.0
58178,1665.0,556.0,4444.0
58179,1665.0,556.0,4444.0
58180,1665.0,556.0,4444.0
58181,1665.0,556.0,4444.0
58182,1665.0,556.0,4444.0
59752,1755.0,1434.0,1342.0
59753,1755.0,1434.0,1342.0
59754,1755.0,2127.0,1342.0
59755,1755.0,1154.0,1342.0
59756,1755.0,1154.0,1342.0
59757,1755.0,1154.0,1342.0
59758,1755.0,1154.0,1342.0
59759,1755.0,826.0,1342.0
59760,1755.0,826.0,1342.0
59761,1755.0,826.0,1342.0
59762,1755.0,826.0,1342.0
59763,1755.0,1407.0,1342.0
59764,1755.0,1407.0,1342.0
59765,1755.0,1407.0,1342.0
59766,1755.0,1407.0,1342.0
59767,1755.0,838.0,1342.0
59768,1755.0,838.0,1342.0
59769,1755.0,1326.0,1342.0
59770,1755.0,1326.0,1342.0
59771,1755.0,1326.0,1342.0
59772,3086.0,1326.0,1342.0
59773,3086.0,1326.0,1342.0
59774,3086.0,706.0,1342.0
59775,3086.0,706.0,1342.0
59776,3086.0,706.0,1342.0
59777,3086.0,706.0,1342.0
59778,3086.0,706.0,1342.0
59779,3086.0,706.0,1342.0
59780,86.0,1871.0,1342.0
59781,6.0,1871.0,1342.0
59782,3086.0,1871.0,1342.0
59783,3086.0,1871.0,1342.0
59784,3086.0,1871.0,2613.0
59785,3086.0,1384.0,2613.0
59786,3086.0,827.0,2613.0
59787,3086.0,827.0,2613.0
59788,3086.0,3229.0,1924.0
59789,3086.0,860.0,1924.0
59790,3086.0,860.0,1924.0
59791,3086.0,1548.0,1924.0
59792,3086.0,2099.0,1924.0
59793,3086.0,2099.0,1924.0
59794,3086.0,2099.0,1924.0
59795,3086.0,2099.0,2406.0
59796,3086.0,2099.0,2406.0
59797,3086.0,2099.0,2736.0
59798,3086.0,2099.0,2736.0
59799,3086.0,2099.0,2736.0
59800,3034.0,2099.0,2736.0
59801,3034.0,2099.0,2736.0
59802,3034.0,2099.0,2736.0
59803,3034.0,394.0,2736.0
59804,3034.0,394.0,2736.0
59805,3034.0,849.0,2736.0
59806,3034.0,2010.0,2736.0
59807,3034.0,2010.0,2736.0
59808,3034.0,2010.0,2736.0
59809,3034.0,2010.0,2736.0
59810,30274.0,1636.0,2736.0
59811,3274.0,1636.0,2736.0
59812,2279.0,1636.0,2736.0
59813,2279.0,1933.0,2736.0
59814,300.0,1933.0,2736.0
59815,2279.0,754.0,2736.0
59816,2279.0,829.0,2736.0
59817,2279.0,829.0,2736.0
59818,2279.0,829.0,2736.0
59819,2279.0,1333.0,2736.0
59820,2279.0,1333.0,2736.0
59821,2279.0,1333.0,2736.0
59822,2279.0,1366.0,2736.0
59823,2279.0,1366.0,2736.0
59824,2279.0,1366.0,2736.0
59825,2279.0,1366.0,2736.0
59826,2279.0,1366.0,2736.0
59827,2279.0,1366.0,1938.0
59828,4040.0,1366.0,1938.0
59829,2482.0,1366.0,1938.0
59830,2482.0,1366.0,1938.0
59831,2482.0,1366.0,1938.0
59832,2482.0,1366.0,1938.0
59833,2482.0,1366.0,1938.0
59834,2482.0,1366.0,1938.0
59835,2482.0,1366.0,1938.0
59836,2482.0,1366.0,1230.0
59837,2482.0,1366.0,3016.0
59838,2482.0,1366.0,3016.0
59839,2482.0,1366.0,3016.0
59840,2482.0,1366.0,3016.0
59841,2482.0,989.0,3016.0
59842,2482.0,989.0,3016.0
59843,2482.0,989.0,3016.0
59844,2482.0,989.0,3016.0
59845,2482.0,989.0,3016.0
59846,2482.0,989.0,3016.0
59847,2482.0,633.0,3016.0
59848,4125.0,633.0,3016.0
59849,4125.0,633.0,3016.0
59850,4125.0,654.0,3016.0
59851,4125.0,654.0,3016.0
59852,4125.0,654.0,3016.0
59853,4125.0,654.0,3016.0
59854,4125.0,654.0,3016.0
59855,4125.0,654.0,3016.0
59856,4125.0,1792.0,3016.0
59857,4125.0,1792.0,3016.0
59858,4125.0,1792.0,3016.0
59859,4125.0,1792.0,3016.0
59860,4125.0,1232.0,3016.0
59861,4125.0,1232.0,1278.0
59862,4125.0,1059.0,1278.0
59863,4125.0,663.0,1278.0
59864,4125.0,663.0,2114.0
59865,4125.0,663.0,2114.0
59866,4125.0,1637.0,2114.0
59867,4125.0,1372.0,2114.0
59868,4125.0,596.0,2058.0
59869,4125.0,596.0,2058.0
59870,4125.0,596.0,2058.0
59871,4125.0,596.0,2058.0
59872,4125.0,471.0,2058.0
59873,4125.0,745.0,2058.0
59874,4125.0,1249.0,2058.0
59875,4125.0,1249.0,2058.0
59876,4125.0,1249.0,2058.0
59877,4125.0,1249.0,2058.0
59878,4125.0,1249.0,2058.0
61418,1598.0,1326.0,2400.0
61419,1598.0,1326.0,2400.0
61420,1598.0,1734.0,2400.0
61421,1598.0,1734.0,2400.0
61422,1598.0,1734.0,2400.0
61423,1598.0,1734.0,2400.0
61424,2642.0,1734.0,2400.0
61425,2642.0,1734.0,2400.0
61426,2642.0,1455.0,2496.0
61427,2642.0,1465.0,2496.0
61428,2045.0,1465.0,2496.0
61429,2045.0,1465.0,2496.0
61430,2045.0,1465.0,2496.0
61431,2045.0,1465.0,2496.0
61432,245.0,1465.0,2496.0
61433,20045.0,1465.0,2496.0
61434,2045.0,1465.0,2496.0
61435,2045.0,1465.0,2496.0
61436,2045.0,1465.0,2496.0
61437,2045.0,1465.0,2496.0
61438,2045.0,1465.0,2496.0
61439,2045.0,1465.0,2496.0
61440,2045.0,1465.0,2496.0
61441,2045.0,1465.0,2496.0
61442,2045.0,1465.0,2496.0
61443,2533.0,1465.0,2496.0
61444,2533.0,1465.0,2496.0
61445,23.0,576.0,3535.0
61446,253533.0,576.0,3535.0
61447,2238.0,576.0,3453.0
61448,2238.0,576.0,3453.0
61449,2238.0,1769.0,3453.0
61450,1637.0,1769.0,3453.0
61451,2850.0,1769.0,3453.0
61452,2727.0,1769.0,3453.0
61453,27.0,1769.0,3453.0
61454,2727.0,986.0,3453.0
61455,1843.0,986.0,3453.0
61456,1843.0,986.0,3453.0
61457,1843.0,986.0,3453.0
61458,1843.0,986.0,3453.0
61459,1843.0,986.0,3453.0
61460,1843.0,986.0,3453.0
61461,1843.0,986.0,3453.0
61462,1843.0,986.0,1931.0
61463,1843.0,986.0,1931.0
61464,1843.0,986.0,1931.0
61465,2772.0,986.0,1931.0
61466,2772.0,986.0,1931.0
61467,2772.0,986.0,1931.0
61468,2772.0,986.0,1931.0
61469,2481.0,986.0,1931.0
61470,4064.0,986.0,1931.0
61471,3238.0,986.0,1931.0
61472,3238.0,986.0,1931.0
61473,3238.0,986.0,1931.0
61474,1767.0,986.0,1931.0
61475,1767.0,986.0,1931.0
61476,1730.0,986.0,1931.0
61477,1730.0,986.0,1931.0
61478,1730.0,986.0,1931.0
61479,1730.0,986.0,1931.0
61480,1730.0,986.0,1931.0
61481,1730.0,986.0,1931.0
61482,1730.0,986.0,1931.0
61483,24.0,1024.0,1931.0
61484,2124.0,1216.0,3557.0
61485,2124.0,1216.0,3557.0
61486,2124.0,1216.0,3557.0
61487,2124.0,1216.0,3557.0
61488,2124.0,1344.0,3557.0
61489,2124.0,1344.0,3557.0
61490,2124.0,2808.0,3557.0
61491,3232.0,2808.0,3557.0
61492,3232.0,2808.0,3557.0
61493,3232.0,2808.0,3557.0
61494,3232.0,2808.0,3557.0
61495,3232.0,2808.0,3557.0
61496,2926.0,2808.0,3557.0
61497,2926.0,2808.0,3557.0
61498,2926.0,2808.0,3557.0
61499,2926.0,2808.0,3557.0
61500,2926.0,2808.0,3557.0
61501,2926.0,2808.0,3557.0
61502,2926.0,2808.0,871.0
61503,2926.0,2808.0,871.0
61504,2926.0,2808.0,871.0
61505,2926.0,2808.0,871.0
61506,2926.0,2808.0,871.0
61507,2926.0,2808.0,871.0
61508,2926.0,1735.0,871.0
61509,2926.0,1735.0,871.0
61510,2926.0,1735.0,871.0
61511,2926.0,1735.0,871.0
61512,2926.0,1735.0,871.0
61513,2926.0,1735.0,871.0
61514,292626.0,1735.0,871.0
61515,2926.0,1413.0,871.0
61516,2926.0,1413.0,871.0
61517,3122.0,1413.0,871.0
61518,3122.0,1413.0,871.0
61519,3122.0,1413.0,871.0
61520,3122.0,1413.0,871.0
61521,3122.0,1413.0,871.0
61522,3122.0,942.0,871.0
61523,3122.0,942.0,871.0
61524,3122.0,942.0,871.0
61525,3132.0,942.0,871.0
61526,3132.0,942.0,871.0
61527,2296.0,942.0,871.0
61528,2296.0,942.0,871.0
61529,2296.0,942.0,3084.0
61530,2296.0,942.0,3084.0
61531,1830.0,942.0,3084.0
61532,1830.0,942.0,3084.0
61533,1830.0,1375.0,3084.0
61534,1830.0,1375.0,3084.0
61535,1830.0,1375.0,3084.0
61536,1830.0,1375.0,2308.0
61537,1830.0,1375.0,2308.0
61538,1830.0,975.0,2308.0
61539,3729.0,975.0,2308.0
61540,3729.0,975.0,2308.0
63235,109.0,730.0,921.0
63236,109.0,730.0,921.0
63237,109.0,730.0,921.0
63238,109.0,730.0,921.0
63239,109.0,730.0,1014.0
63240,109.0,730.0,1078.0
63241,109.0,730.0,1078.0
63242,109.0,730.0,1319.0
63243,109.0,730.0,845.0
63244,109.0,730.0,845.0
63245,109.0,730.0,845.0
63246,109.0,730.0,1105.0
63247,109.0,730.0,1105.0
63248,109.0,730.0,1105.0
63249,109.0,730.0,1105.0
63250,109.0,730.0,552.0
63251,109.0,730.0,552.0
63252,153.0,730.0,1145.0
63253,153.0,730.0,1145.0
63254,153.0,730.0,1145.0
63255,96.0,730.0,1145.0
63256,96.0,730.0,1145.0
63257,96.0,730.0,994.0
63258,96.0,730.0,994.0
63259,96.0,730.0,994.0
63260,96.0,730.0,994.0
63261,96.0,733.0,994.0
63262,96.0,733.0,994.0
63263,96.0,733.0,1125.0
63264,96.0,733.0,575.0
63265,96.0,504.0,575.0
63266,96.0,504.0,575.0
63267,253.0,504.0,575.0
63268,253.0,504.0,575.0
63269,253.0,504.0,575.0
63270,253.0,504.0,575.0
63271,253.0,504.0,575.0
63272,253.0,504.0,575.0
63273,253.0,504.0,575.0
63274,53.0,504.0,575.0
63275,53.0,504.0,575.0
63276,53.0,504.0,575.0
63277,53.0,504.0,575.0
63278,53.0,504.0,742.0
63279,53.0,504.0,824.0
63280,53.0,504.0,1183.0
63281,53.0,504.0,1183.0
63282,53.0,504.0,1183.0
63283,53.0,1173.0,1183.0
63284,53.0,1173.0,1183.0
63285,53.0,1173.0,1183.0
63286,53.0,1173.0,1183.0
63287,53.0,1173.0,1183.0
63288,53.0,1173.0,1183.0
63289,53.0,1173.0,1183.0
63290,53.0,1173.0,1183.0
63291,53.0,1173.0,1183.0
63292,53.0,1173.0,1183.0
63293,53.0,384.0,1183.0
63294,53.0,384.0,1183.0
63295,53.0,384.0,711.0
63296,53.0,384.0,711.0
63297,53.0,384.0,459.0
63298,53.0,384.0,459.0
63299,53.0,670.0,459.0
63300,53.0,670.0,825.0
63301,53.0,695.0,825.0
63302,53.0,695.0,825.0
63303,53.0,695.0,825.0
63304,53.0,695.0,825.0
63305,53.0,695.0,825.0
63306,281.0,695.0,825.0
63307,281.0,695.0,825.0
63308,77.0,695.0,825.0
63309,77.0,695.0,825.0
63310,259.0,695.0,825.0
63311,259.0,695.0,825.0
63312,259.0,695.0,825.0
63313,259.0,695.0,825.0
63314,259.0,695.0,825.0
63315,259.0,695.0,825.0
63316,259.0,695.0,825.0
63317,259.0,940.0,825.0
63318,259.0,940.0,825.0
63319,259.0,513.0,825.0
63320,259.0,686.0,825.0
63321,259.0,686.0,825.0
63322,259.0,686.0,825.0
63323,259.0,686.0,825.0
63324,259.0,686.0,1359.0
63325,259.0,615.0,1359.0
63326,259.0,615.0,1359.0
63327,256.0,615.0,1359.0
63328,213.0,615.0,1359.0
63329,213.0,615.0,1359.0
63330,213.0,615.0,1359.0
63331,213.0,943.0,1359.0
63332,213.0,943.0,1359.0
63333,213.0,943.0,1359.0
63334,213.0,943.0,1359.0
63335,213.0,446.0,1359.0
63336,213.0,917.0,1359.0
63337,213.0,917.0,758.0
63338,213.0,917.0,1329.0
63339,213.0,917.0,1329.0
63340,213.0,917.0,1329.0
63341,213.0,917.0,1329.0
63342,213.0,917.0,788.0
63343,213.0,1007.0,788.0
63344,213.0,1007.0,788.0
63345,213.0,1007.0,788.0
63346,213.0,1007.0,877.0
63347,213.0,463.0,877.0
63348,213.0,463.0,877.0
63349,213.0,336.0,877.0
63350,213.0,336.0,877.0
63351,213.0,336.0,877.0
63352,213.0,336.0,877.0
63353,213.0,336.0,877.0
63354,213.0,336.0,877.0
63355,213.0,569.0,877.0
63356,213.0,569.0,877.0
63357,213.0,569.0,877.0
63358,213.0,819.0,877.0
63359,213.0,819.0,877.0
63360,385.0,819.0,877.0
63361,385.0,819.0,877.0
63362,178.0,819.0,877.0
63363,178.0,819.0,877.0
63364,222.0,846.0,877.0
63365,222.0,846.0,877.0
63366,222.0,846.0,877.0
63367,222.0,846.0,877.0
63368,70.0,846.0,877.0
63369,70.0,846.0,877.0
63370,70.0,846.0,1593.0
63371,70.0,322.0,1593.0
63372,70.0,322.0,1593.0
63373,70.0,322.0,1593.0
63374,70.0,322.0,1593.0
63375,70.0,322.0,1593.0
63376,70.0,322.0,1593.0
63377,169.0,322.0,1593.0
63378,169.0,322.0,1593.0
63379,169.0,482.0,1593.0
63380,169.0,482.0,1593.0
63381,169.0,482.0,1593.0
63382,169.0,482.0,1593.0
63383,169.0,482.0,1593.0
63384,169.0,1335.0,1593.0
63385,169.0,632.0,1593.0
63386,169.0,632.0,1593.0
63387,169.0,669.0,1593.0
65005,221.0,904.0,438.0
65006,350.0,904.0,438.0
65007,350.0,904.0,438.0
65008,350.0,1766.0,1111.0
65009,350.0,1766.0,1111.0
65010,490.0,1766.0,1111.0
65011,490.0,1190.0,1111.0
65012,490.0,1190.0,1111.0
65013,218.0,1184.0,1111.0
65014,218.0,1184.0,1111.0
65015,218.0,1184.0,1111.0
65016,218.0,1184.0,1111.0
65017,218.0,1763.0,1111.0
65018,156.0,1058.0,1105.0
65019,156.0,1058.0,1105.0
65020,156.0,1058.0,1105.0
65021,219.0,1058.0,1105.0
65022,219.0,1058.0,1105.0
65023,219.0,1058.0,1105.0
65024,219.0,1058.0,1105.0
65025,219.0,1058.0,1105.0
65026,219.0,1058.0,1105.0
65027,311.0,1058.0,1105.0
65028,311.0,1058.0,1105.0
65029,311.0,1058.0,1105.0
65030,68.0,1058.0,1105.0
65031,68.0,1058.0,1105.0
65032,68.0,1058.0,1105.0
65033,68.0,1058.0,1105.0
65034,68.0,1058.0,1105.0
65035,68.0,1058.0,1105.0
65036,68.0,1058.0,1105.0
65037,68.0,1058.0,1105.0
65038,68.0,1058.0,1105.0
65039,68.0,1058.0,1105.0
65040,68.0,1058.0,1105.0
65041,68.0,1058.0,1105.0
65042,68.0,1058.0,1105.0
65043,68.0,1058.0,1105.0
65044,68.0,1058.0,1105.0
65045,68.0,1058.0,1105.0
65046,68.0,1058.0,1105.0
65047,68.0,1058.0,1105.0
65048,68.0,1058.0,1105.0
65049,68.0,1058.0,1105.0
65050,68.0,1058.0,1105.0
65051,68.0,1058.0,1105.0
65052,68.0,1058.0,1105.0
65053,68.0,1058.0,1105.0
65054,68.0,1058.0,134.0
65055,68.0,1058.0,134.0
65056,68.0,1058.0,134.0
65057,68.0,1058.0,134.0
65058,68.0,1058.0,134.0
65059,68.0,1058.0,134.0
65060,68.0,1058.0,134.0
65061,68.0,1058.0,134.0
65062,329.0,1058.0,134.0
65063,329.0,1058.0,134.0
65064,329.0,1058.0,904.0
65065,233.0,1058.0,904.0
65066,233.0,1058.0,904.0
65067,145.0,1058.0,904.0
65068,157.0,1058.0,904.0
65069,201.0,1058.0,904.0
65070,201.0,1058.0,904.0
65071,130.0,1058.0,904.0
65072,130.0,1058.0,904.0
65073,130.0,1058.0,904.0
65074,130.0,1058.0,1012.0
65075,130.0,1058.0,1012.0
65076,130.0,1058.0,1012.0
65077,220.0,1058.0,1012.0
65078,177.0,1058.0,1012.0
65079,177.0,1058.0,1012.0
65080,177.0,1058.0,1012.0
65081,177.0,1058.0,1012.0
65082,177.0,1058.0,1012.0
65083,177.0,1058.0,1012.0
65084,177.0,1058.0,1012.0
65085,177.0,1058.0,1012.0
65086,177.0,1058.0,1012.0
65087,177.0,1058.0,1012.0
65088,177.0,1058.0,1012.0
65089,186.0,1058.0,1012.0
65090,186.0,1058.0,1012.0
65091,186.0,1058.0,1012.0
65092,200.0,1058.0,1012.0
65093,146.0,1058.0,1012.0
65094,146.0,1058.0,1012.0
65095,207.0,1058.0,1012.0
65096,207.0,1058.0,1012.0
65097,207.0,1058.0,1012.0
65098,86.0,1058.0,1012.0
65099,244.0,1058.0,1012.0
65100,111.0,1058.0,1012.0
65101,111.0,1058.0,1012.0
65102,111.0,1058.0,1012.0
65103,111.0,1058.0,1012.0
65104,111.0,1058.0,1012.0
65105,111.0,1058.0,1012.0
65106,111.0,1058.0,1012.0
65107,111.0,1058.0,1012.0
65108,111.0,1058.0,1012.0
65109,111.0,1058.0,1012.0
65110,296.0,1058.0,1012.0
65111,296.0,1058.0,1012.0
65112,296.0,1058.0,1012.0
65113,296.0,1058.0,1012.0
65114,296.0,1058.0,1012.0
65115,296.0,1058.0,1012.0
65116,296.0,1058.0,1012.0
65117,296.0,1058.0,1012.0
65118,296.0,1058.0,1012.0
65119,182.0,1058.0,1012.0
65120,1882.0,1058.0,1012.0
65121,182.0,1058.0,1012.0
65122,182.0,1058.0,1012.0
65123,182.0,986.0,1012.0
65124,182.0,986.0,1012.0
66829,106.0,1321.0,699.0
66830,178.0,1321.0,699.0
66831,215.0,1321.0,699.0
66832,115.0,1321.0,699.0
66833,2243.0,1321.0,699.0
66834,262.0,1321.0,699.0
66835,124.0,1321.0,699.0
66836,124.0,1321.0,699.0
66837,100.0,1321.0,699.0
66838,199.0,1321.0,699.0
66839,199.0,1321.0,699.0
66840,91.0,1321.0,699.0
66841,236.0,1321.0,699.0
66842,236.0,1321.0,699.0
66843,139.0,1321.0,713.0
66844,139.0,511.0,713.0
66845,139.0,511.0,713.0
66846,39.0,511.0,713.0
66847,139.0,680.0,713.0
66848,139.0,816.0,713.0
66849,196.0,893.0,713.0
66850,245.0,893.0,713.0
66851,245.0,893.0,713.0
66852,161.0,893.0,713.0
66853,161.0,893.0,713.0
66854,161.0,893.0,713.0
66855,161.0,893.0,713.0
66856,161.0,893.0,891.0
66857,161.0,893.0,891.0
66858,161.0,893.0,826.0
66859,188.0,893.0,826.0
66860,296.0,893.0,826.0
66861,296.0,893.0,826.0
66862,127.0,893.0,826.0
66863,268.0,1654.0,826.0
66864,268.0,1654.0,826.0
66865,268.0,1654.0,826.0
66866,268.0,1654.0,826.0
66867,268.0,892.0,826.0
66868,268.0,892.0,826.0
66869,188.0,892.0,826.0
66870,188.0,892.0,826.0
66871,92.0,892.0,550.0
66872,190.0,892.0,580.0
66873,443.0,892.0,666.0
66874,443.0,892.0,666.0
66875,443.0,898.0,666.0
66876,443.0,898.0,666.0
66877,443.0,898.0,666.0
66878,443.0,600.0,666.0
66879,443.0,600.0,666.0
66880,443.0,659.0,666.0
66881,443.0,659.0,666.0
66882,443.0,659.0,666.0
66883,443.0,659.0,666.0
66884,443.0,659.0,328.0
66885,443.0,659.0,328.0
66886,443.0,659.0,657.0
66887,443.0,659.0,657.0
66888,443.0,659.0,657.0
66889,443.0,659.0,657.0
66890,443.0,659.0,768.0
66891,4400.0,659.0,768.0
66892,142.0,659.0,768.0
66893,328.0,659.0,768.0
66894,328.0,659.0,768.0
66895,328.0,659.0,768.0
66896,328.0,659.0,768.0
66897,328.0,659.0,768.0
66898,215.0,659.0,768.0
66899,215.0,659.0,768.0
66900,215.0,659.0,500.0
66901,215.0,659.0,500.0
66902,215.0,659.0,500.0
66903,155.0,659.0,500.0
66904,139.0,659.0,500.0
66905,139.0,659.0,500.0
66906,92.0,659.0,500.0
66907,92.0,1242.0,500.0
66908,92.0,1242.0,500.0
66909,57.0,1242.0,500.0
66910,57.0,1242.0,500.0
66911,181.0,1242.0,500.0
66912,181.0,1242.0,500.0
66913,181.0,1242.0,500.0
66914,181.0,1242.0,827.0
66915,181.0,1242.0,827.0
66916,181.0,1242.0,827.0
66917,181.0,861.0,827.0
66918,181.0,861.0,827.0
66919,181.0,933.0,827.0
66920,181.0,933.0,827.0
66921,181.0,617.0,827.0
66922,181.0,617.0,827.0
66923,181.0,617.0,827.0
66924,181.0,617.0,469.0
66925,181.0,617.0,469.0
66926,181.0,617.0,607.0
66927,181.0,617.0,837.0
66928,181.0,617.0,837.0
66929,181.0,617.0,837.0
66930,181.0,617.0,837.0
66931,181.0,617.0,651.0
66932,181.0,617.0,651.0
66933,181.0,617.0,426.0
66934,181.0,617.0,426.0
66935,181.0,617.0,426.0
66936,181.0,617.0,426.0
66937,181.0,617.0,426.0
66938,181.0,617.0,548.0
66939,181.0,617.0,548.0
66940,214.0,617.0,275.0
66941,214.0,617.0,275.0
66942,214.0,617.0,275.0
66943,214.0,617.0,275.0
66944,214.0,617.0,1203.0
66945,120.0,617.0,1203.0
66946,254.0,617.0,1203.0
66947,254.0,617.0,1203.0
66948,254.0,617.0,1203.0
66949,254.0,617.0,1203.0
66950,102.0,617.0,724.0
66951,102.0,617.0,724.0
66952,102.0,617.0,724.0
66953,96.0,617.0,724.0
66954,96.0,617.0,724.0
66955,96.0,617.0,724.0
66956,96.0,617.0,897.0
66957,96.0,617.0,897.0
66958,996.0,617.0,897.0
66959,96.0,617.0,897.0
66960,96.0,617.0,897.0
66961,96.0,617.0,897.0
66962,96.0,617.0,806.0
66963,96.0,617.0,806.0
66964,187.0,617.0,806.0
66965,38.0,617.0,806.0
66966,38.0,617.0,806.0
66967,38.0,1255.0,806.0
66968,38.0,1255.0,806.0
68555,1876.0,704.0,1811.0
68556,820.0,704.0,1811.0
68557,820.0,704.0,1811.0
68558,820.0,704.0,1811.0
68559,820.0,704.0,1811.0
68560,820.0,704.0,1811.0
68561,1042.0,714.0,1811.0
68562,971.0,714.0,1811.0
68563,971.0,714.0,1811.0
68564,1126.0,714.0,1811.0
68565,1126.0,714.0,1811.0
68566,1126.0,714.0,1811.0
68567,1126.0,714.0,1811.0
68568,1126126.0,714.0,1811.0
68569,1126.0,714.0,1811.0
68570,1126.0,714.0,1811.0
68571,1126.0,714.0,1811.0
68572,1126.0,714.0,1811.0
68573,1126.0,714.0,1811.0
68574,1126.0,714.0,1811.0
68575,1126.0,714.0,1811.0
68576,1126.0,714.0,1811.0
68577,1126.0,714.0,1811.0
68578,1126.0,714.0,1811.0
68579,1126.0,714.0,1811.0
68580,1126.0,714.0,1811.0
68581,1126.0,796.0,1811.0
68582,1126.0,796.0,1811.0
68583,1126.0,796.0,1811.0
68584,1126.0,796.0,1811.0
68585,1126.0,454.0,1811.0
68586,1126.0,454.0,1811.0
68587,1855.0,454.0,1811.0
68588,1855.0,454.0,1811.0
68589,1855.0,454.0,1811.0
68590,1855.0,454.0,1811.0
68591,1855.0,454.0,1811.0
68592,1855.0,454.0,1811.0
68593,1855.0,454.0,1811.0
68594,1855.0,454.0,1811.0
68595,1855.0,454.0,1811.0
68596,1855.0,454.0,1811.0
68597,1855.0,454.0,1811.0
68598,1855.0,454.0,1811.0
68599,1855.0,454.0,1811.0
68600,1855.0,454.0,1811.0
68601,1855.0,454.0,1811.0
68602,1855.0,454.0,1811.0
68603,1855.0,454.0,1811.0
68604,1855.0,454.0,1811.0
68605,1855.0,454.0,1811.0
68606,1855.0,454.0,1811.0
68607,1855.0,454.0,788.0
68608,1855.0,454.0,788.0
68609,1855.0,454.0,788.0
68610,1855.0,803.0,788.0
68611,126.0,454.0,1.0
68612,1855.0,380.0,788.0
68613,1855.0,380.0,788.0
68614,1855.0,380.0,4635.0
68615,1855.0,380.0,4635.0
68616,1855.0,380.0,4635.0
68617,1855.0,380.0,4635.0
68618,1855.0,380.0,4635.0
68619,1855.0,380.0,4635.0
68620,1855.0,380.0,4635.0
68621,1051.0,380.0,4635.0
68622,1051.0,1044.0,4635.0
68623,1051.0,468.0,4635.0
68624,1051.0,468.0,4635.0
68625,1051.0,606.0,4635.0
68626,1051.0,606.0,4635.0
68627,1051.0,606.0,4635.0
68628,1051.0,606.0,4635.0
68629,1051.0,606.0,4635.0
68630,1051.0,606.0,4635.0
68631,1051.0,606.0,4635.0
68632,1051.0,606.0,4635.0
68633,1051.0,606.0,4635.0
68634,1051.0,606.0,4635.0
68635,971.0,606.0,4635.0
68636,1921.0,606.0,4635.0
68637,1921.0,606.0,1191.0
68638,1921.0,606.0,1191.0
68639,1921.0,606.0,1191.0
68640,1921.0,606.0,1191.0
68641,1921.0,606.0,1191.0
68642,1921.0,606.0,2909.0
68643,1921.0,606.0,2909.0
68644,1921.0,606.0,2909.0
68645,1921.0,606.0,2909.0
68646,1921.0,606.0,2909.0
68647,1921.0,606.0,2909.0
68648,1921.0,606.0,2909.0
68649,1921.0,606.0,2909.0
68650,1921.0,606.0,2909.0
68651,1921.0,1110.0,2909.0
68652,1921.0,1110.0,2909.0
68653,1921.0,1110.0,2909.0
68654,1921.0,1110.0,2909.0
68655,1921.0,1110.0,2909.0
68656,1921.0,1110.0,2909.0
68657,1921.0,1110.0,2909.0
68658,1921.0,1110.0,1916.0
68659,1921.0,1110.0,1916.0
68660,1921.0,1110.0,2142.0
68661,1921.0,1110.0,2142.0
68662,1921.0,1110.0,2142.0
68663,1921.0,1110.0,2142.0
68664,1921.0,1110.0,2142.0
68665,585.0,1110.0,2142.0
68666,1360.0,1110.0,2142.0
68667,1360.0,1110.0,1454.0
68668,1360.0,1110.0,1454.0
68669,1360.0,1110.0,1454.0
68670,1360.0,1110.0,3020.0
68671,1360.0,1110.0,3020.0
68672,1360.0,1110.0,3020.0
68673,1360.0,1110.0,3020.0
68674,1360.0,1110.0,3020.0
68675,1360.0,1110.0,2456.0
68676,1360.0,1110.0,2456.0
68677,1360.0,324.0,2156.0
68678,1360.0,457.0,2156.0
68679,1360.0,457.0,2156.0
68680,1360.0,385.0,274.0
68681,1360.0,385.0,274.0
68682,1360.0,385.0,1902.0
68683,1360.0,385.0,1902.0
68684,1360.0,385.0,1902.0
68685,1360.0,385.0,1902.0
68686,1360.0,937.0,1902.0
68687,1360.0,937.0,1902.0
68688,1360.0,636.0,1902.0
68689,101360.0,636.0,1902.0
68690,11360.0,636.0,1902.0
68691,1360.0,636.0,1902.0
68692,1360.0,636.0,1902.0
68693,1360.0,636.0,1902.0
70398,2056.0,1971.0,256.0
70399,2056.0,1971.0,256.0
70400,2056.0,1971.0,256.0
70401,1838.0,1971.0,256.0
70402,1838.0,1971.0,256.0
70403,1838.0,1971.0,256.0
70404,973.0,1971.0,256.0
70405,973.0,1971.0,256.0
70406,973.0,1971.0,256.0
70407,1254.0,1971.0,256.0
70408,1254.0,1971.0,256.0
70409,1254.0,1971.0,256.0
70410,1254.0,1971.0,256.0
70411,1471.0,1971.0,256.0
70412,1471.0,1971.0,256.0
70413,1033.0,1971.0,256.0
70414,1033.0,1971.0,256.0
70415,1033.0,1971.0,256.0
70416,1033.0,1971.0,256.0
70417,1488.0,1971.0,256.0
70418,1488.0,1971.0,256.0
70419,780.0,1971.0,256.0
70420,780.0,1971.0,256.0
70421,780.0,1971.0,256.0
70422,780.0,1971.0,256.0
70423,780.0,1971.0,256.0
70424,780.0,1540.0,256.0
70425,780.0,1540.0,256.0
70426,780.0,1540.0,256.0
70427,769.0,1540.0,256.0
70428,769.0,1540.0,256.0
70429,769.0,1540.0,256.0
70430,769.0,1540.0,256.0
70431,769.0,1540.0,256.0
70432,769.0,1929.0,256.0
70433,769.0,1929.0,256.0
70434,1398.0,1929.0,256.0
70435,1398.0,1929.0,256.0
70436,1398.0,1929.0,256.0
70437,1398.0,1929.0,256.0
70438,1398.0,1929.0,256.0
70439,1398.0,1929.0,256.0
70440,2145.0,1929.0,256.0
70441,2145.0,1929.0,256.0
70442,2145.0,1929.0,256.0
70443,2145.0,1929.0,256.0
70444,2102.0,1929.0,256.0
70445,2102.0,1929.0,256.0
70446,1617.0,97.0,969.0
72145,382.0,118.0,95.0
72146,382.0,118.0,95.0
72147,559.0,118.0,95.0
72148,559.0,118.0,95.0
72149,559.0,118.0,95.0
72150,559.0,118.0,95.0
72151,355.0,118.0,95.0
72152,355.0,118.0,95.0
72153,355.0,182.0,95.0
72154,355.0,182.0,95.0
72155,355.0,138.0,95.0
72156,355.0,153.0,95.0
72157,285.0,153.0,95.0
72158,340.0,153.0,95.0
72159,340.0,153.0,123.0
72160,257.0,123.0,123.0
72161,257.0,123.0,123.0
72162,257.0,123.0,123.0
72163,257.0,123.0,123.0
72164,257.0,109.0,123.0
72165,257.0,109.0,253.0
72166,257.0,109.0,253.0
72167,257.0,59.0,101.0
72168,257.0,59.0,101.0
72169,257.0,132.0,101.0
72170,257.0,231.0,220.0
72171,257.0,125.0,220.0
72172,257.0,125.0,220.0
72173,257.0,125.0,114.0
72174,257.0,125.0,114.0
72175,257.0,125.0,379.0
72176,257.0,125.0,379.0
72177,257.0,125.0,379.0
72178,257.0,137.0,379.0
72179,257.0,137.0,379.0
72180,171.0,135.0,379.0
72181,171.0,135.0,182.0
72182,171.0,135.0,182.0
72183,171.0,204.0,182.0
72184,171.0,70.0,182.0
72185,171.0,70.0,181.0
72186,171.0,126.0,181.0
72187,171.0,126.0,181.0
72188,171.0,126.0,181.0
72189,171.0,73.0,181.0
72190,171.0,73.0,181.0
72191,171.0,72.0,181.0
72192,171.0,72.0,181.0
72193,171.0,172.0,181.0
72194,171.0,172.0,181.0
72195,435.0,172.0,181.0
72196,435.0,172.0,181.0
72197,435.0,58.0,181.0
72198,435.0,58.0,181.0
72199,435.0,401.0,181.0
72200,435.0,401.0,181.0
72201,126.0,401.0,181.0
72202,126.0,401.0,181.0
72203,195.0,401.0,181.0
72204,195.0,401.0,181.0
72205,195.0,401.0,181.0
72206,195.0,401.0,432.0
72207,195.0,401.0,432.0
72208,296.0,401.0,432.0
72209,296.0,401.0,425.0
72210,296.0,401.0,65.0
72211,296.0,79.0,65.0
72212,296.0,79.0,65.0
72213,296.0,79.0,65.0
72214,296.0,79.0,65.0
72215,296.0,79.0,65.0
72216,296.0,79.0,65.0
72217,296.0,104.0,65.0
72218,296.0,104.0,65.0
72219,296.0,193.0,65.0
72220,296.0,193.0,65.0
72221,296.0,193.0,65.0
72222,296.0,111.0,65.0
72223,296.0,123.0,65.0
72224,296.0,123.0,65.0
72225,296.0,123.0,338.0
72226,296.0,123.0,338.0
