timestamp,emg1,emg2,emg3
271,3407.0,3141.0,5448.0
272,34073407.0,3141.0,2725.0
273,3407.0,3141.0,2725.0
274,3407.0,1139.0,2725.0
275,3407.0,1728.0,2725.0
276,3407.0,1728.0,2725.0
277,3407.0,1728.0,3652.0
278,3407.0,1728.0,3514.0
279,3407.0,1728.0,4279.0
280,3407.0,1728.0,4279.0
281,3407.0,1728.0,4279.0
282,3407.0,1728.0,4584.0
283,3407.0,1728.0,4584.0
284,3407.0,1728.0,4584.0
285,3407.0,1728.0,4584.0
286,3407.0,1728.0,4584.0
287,3407.0,4262.0,4119.0
288,3407.0,4262.0,4119.0
289,3407.0,4262.0,2483.0
290,3407.0,4262.0,2852.0
291,3407.0,4262.0,2852.0
292,3407.0,4262.0,4979.0
293,3407.0,1544.0,4979.0
294,3407.0,1544.0,4979.0
295,3407.0,1544.0,4979.0
296,3407.0,1544.0,1168.0
297,3407.0,1544.0,1168.0
298,3407.0,1544.0,1168.0
299,3407.0,1544.0,1168.0
300,3407.0,1534.0,1168.0
301,3407.0,2245.0,1168.0
302,3407.0,2245.0,1168.0
303,3407.0,2245.0,1168.0
304,3428.0,2245.0,1168.0
305,4637.0,2245.0,1168.0
306,4637.0,2245.0,1168.0
307,4637.0,2245.0,1168.0
308,4637.0,2245.0,1168.0
309,4637.0,2245.0,3876.0
310,4637.0,2245.0,3567.0
311,4637.0,4201.0,3567.0
312,4637.0,4201.0,3567.0
313,4637.0,4201.0,3567.0
314,4637.0,4201.0,3567.0
315,3831.0,4201.0,3567.0
316,3831.0,4201.0,3567.0
317,3831.0,4201.0,3567.0
318,3831.0,4201.0,2184.0
319,3831.0,4201.0,2184.0
320,5624.0,4201.0,5045.0
321,5624.0,4201.0,5045.0
322,5624.0,3730.0,5045.0
323,5624.0,2463.0,5045.0
324,5624.0,2463.0,5045.0
325,5624.0,2463.0,5045.0
326,5624.0,2553.0,5045.0
327,5624.0,2553.0,5045.0
328,5624.0,2553.0,3379.0
329,5624.0,2553.0,3379.0
330,5624.0,2553.0,3370.0
331,5624.0,2553.0,3370.0
332,5624.0,2553.0,3370.0
333,5624.0,2912.0,3370.0
334,5624624.0,2145.0,3370.0
335,5624.0,3865.0,3370.0
336,56240.0,2647.0,1650.0
337,3398.0,2647.0,1650.0
338,3398.0,4305.0,1650.0
339,3398.0,3163.0,1650.0
340,5414.0,3163.0,1650.0
341,5414.0,3163.0,1650.0
342,5414.0,3400.0,1650.0
343,5414.0,3400.0,1650.0
344,5414.0,936.0,1650.0
345,5414.0,936.0,1650.0
346,5414.0,936.0,1650.0
347,5414.0,936.0,3115.0
348,5414.0,2981.0,3115.0
349,5414.0,2981.0,3115.0
350,5414.0,2981.0,3115.0
351,5414.0,2981.0,3115.0
352,5414.0,3283.0,3115.0
353,5414.0,3283.0,3115.0
354,5414.0,3283.0,3115.0
355,5414.0,3283.0,3115.0
356,5414.0,3283.0,3115.0
357,5414.0,2474.0,3115.0
358,5414.0,2474.0,3115.0
359,5414.0,2474.0,3115.0
360,5414.0,2474.0,3115.0
361,2884.0,2474.0,3115.0
362,2884.0,2474.0,3115.0
363,2884.0,5181.0,3115.0
364,2884.0,2807.0,3115.0
365,2945.0,1968.0,3115.0
366,2945.0,2785.0,3115.0
367,2945.0,2785.0,3115.0
368,2945.0,2785.0,3115.0
369,2945.0,1440.0,3115.0
370,2945.0,2574.0,3115.0
371,2945.0,1852.0,3115.0
372,2945.0,1852.0,3115.0
373,2945.0,1852.0,3115.0
374,5506.0,2801.0,3115.0
375,5506.0,2801.0,3115.0
376,5506.0,2801.0,5682.0
377,5506.0,2739.0,5682.0
378,5506.0,3019.0,5682.0
379,5506.0,3019.0,5682.0
380,5506.0,5458.0,4462.0
381,5506.0,5458.0,4462.0
382,5506.0,5458.0,4462.0
383,5506.0,5458.0,4462.0
384,5506.0,5458.0,4462.0
385,5506.0,5458.0,4462.0
386,5506.0,2867.0,3208.0
387,5506.0,2092.0,3208.0
388,5506.0,2092.0,3208.0
389,5506.0,2092.0,3208.0
390,5506.0,2092.0,3208.0
391,5506.0,2092.0,3208.0
392,5506.0,2092.0,3208.0
393,5506.0,2092.0,6622.0
394,5506.0,2092.0,6622.0
395,5506.0,2092.0,8653.0
396,5506.0,2092.0,8653.0
397,5506.0,2092.0,8653.0
398,5506.0,2092.0,2579.0
399,5506.0,2092.0,4655.0
400,5506.0,2092.0,2366.0
401,5506.0,2092.0,4250.0
402,5506.0,2092.0,4250.0
403,5506.0,2092.0,4250.0
404,5506.0,2092.0,4250.0
405,5506.0,2092.0,4250.0
406,5506.0,2092.0,4250.0
407,5506.0,2092.0,4250.0
408,5506.0,1827.0,4250.0
409,5506.0,1827.0,4250.0
410,5172.0,1827.0,4250.0
2170,4646.0,1888.0,3356.0
2171,4646.0,1888.0,3356.0
2172,4646.0,2634.0,3356.0
2173,4646.0,2450.0,3356.0
2174,4646.0,2450.0,3356.0
2175,4646.0,2450.0,3356.0
2176,4646.0,2431.0,3356.0
2177,4646.0,2431.0,3356.0
2178,4646.0,2431.0,3322.0
2179,4646.0,4179.0,3322.0
2180,4646.0,4179.0,3322.0
2181,4646.0,4179.0,3322.0
2182,4646.0,4179.0,3322.0
2183,4646.0,4179.0,3322.0
2184,4646.0,2798.0,3322.0
2185,1696.0,2798.0,5706.0
2186,1696.0,2798.0,5706.0
2187,4.0,2798.0,5706.0
2188,16966.0,2798.0,5706.0
2189,6298.0,2798.0,5706.0
2190,6298.0,2798.0,5706.0
2191,6298.0,2798.0,5706.0
2192,6298.0,3865.0,5706.0
2193,6298.0,3865.0,5706.0
2194,6298.0,3865.0,5706.0
2195,2278.0,3865.0,5706.0
2196,2278.0,3865.0,5706.0
2197,2278.0,3865.0,2477.0
2198,2278.0,3865.0,2477.0
2199,2278.0,3865.0,2477.0
2200,2278.0,3865.0,2477.0
2201,2278.0,3865.0,2477.0
2202,2278.0,3865.0,5283.0
2203,2278.0,3865.0,5283.0
2204,2278.0,3865.0,5283.0
2205,2278.0,3865.0,5283.0
2206,2278.0,3865.0,5283.0
2207,2278.0,3865.0,5283.0
2208,2278.0,3865.0,5283.0
2209,2278.0,3865.0,5283.0
2210,2278.0,3865.0,5283.0
2211,2278.0,3865.0,5283.0
2212,2278.0,3865.0,5283.0
2213,2278.0,3865.0,5283.0
2214,2278.0,3865.0,5283.0
2215,2278.0,3865.0,5283.0
2216,2278.0,3865.0,5283.0
2217,2278.0,3865.0,5283.0
2218,2278.0,3865.0,5283.0
2219,2278.0,3865.0,5283.0
2220,2278.0,3865.0,5283.0
2221,2278.0,3865.0,4264.0
2222,2278.0,3865.0,4264.0
2223,2278.0,3865.0,4264.0
2224,2278.0,3865.0,4266.0
2225,2278.0,3865.0,4659.0
2226,2278.0,3865.0,5240.0
2227,2278.0,3865.0,5240.0
2228,2278.0,3865.0,5240.0
2229,2278.0,3865.0,1994.0
2230,7932.0,3865.0,3962.0
2231,7932.0,3865.0,5056.0
2232,7932.0,3865.0,5056.0
2233,7932.0,3865.0,5056.0
2234,7932.0,3865.0,5056.0
2235,7932.0,3865.0,5056.0
2236,7932.0,3865.0,5056.0
2237,7932.0,3865.0,5056.0
2238,7932.0,3865.0,5056.0
2239,7932.0,3865.0,5056.0
2240,7932.0,3865.0,3228.0
2241,6194.0,3865.0,3228.0
2242,6194.0,3865.0,3228.0
2243,7423.0,3865.0,3228.0
2244,7423.0,3865.0,3228.0
2245,7423.0,3865.0,2475.0
2246,7423.0,3865.0,2475.0
2247,7423.0,3865.0,2475.0
2248,7423.0,3865.0,2475.0
2249,3617.0,3865.0,2475.0
2250,3617.0,3865.0,2475.0
2251,3617.0,3865.0,2475.0
2252,3617.0,3865.0,2475.0
2253,3760.0,3865.0,2475.0
2254,3760.0,3865.0,2130.0
2255,3760.0,3865.0,4836.0
2256,3951.0,3865.0,4836.0
2257,3951.0,3865.0,4836.0
2258,3951.0,3865.0,4836.0
2259,3951.0,3865.0,4836.0
2260,4435.0,3865.0,2964.0
2261,4435.0,3865.0,2964.0
2262,4727.0,3865.0,2964.0
2263,4727.0,3865.0,2964.0
2264,4727.0,3865.0,2964.0
2265,4727.0,3865.0,2964.0
2266,4727.0,3865.0,2964.0
2267,4727.0,3865.0,6498.0
2268,4727.0,3865.0,6498.0
2269,4727.0,3865.0,2352.0
2270,4727.0,3865.0,2352.0
2271,4727.0,3865.0,3041.0
2272,4727.0,3865.0,3041.0
2273,4727.0,3865.0,3041.0
2274,4727.0,3865.0,3041.0
2275,4727.0,3865.0,3041.0
2276,4727.0,3865.0,3041.0
2277,4727.0,3865.0,3041.0
2278,4727.0,3865.0,3041.0
2279,2514.0,3865.0,3041.0
2280,2514.0,3865.0,3041.0
2281,4740.0,3865.0,3041.0
2282,4740.0,3865.0,3041.0
2283,4740.0,3865.0,3041.0
2284,4740.0,3865.0,3041.0
2285,4740.0,3865.0,3041.0
2286,4740.0,3865.0,3041.0
2287,47440.0,3865.0,4152.0
2288,4740.0,3865.0,4152.0
2289,4740.0,3865.0,4152.0
2290,4740.0,3865.0,4152.0
2291,4740.0,3865.0,4152.0
2292,4740.0,3865.0,3178.0
2293,4740.0,3865.0,3178.0
2294,4740.0,3865.0,3201.0
2295,4740.0,3865.0,3201.0
2296,4740.0,3865.0,4439.0
3639,548.0,348.0,3226.0
3640,1067.0,374365.0,3743.0
4199,1131.0,1008.0,3852.0
4200,1131.0,3371.0,3852.0
4201,1131.0,3371.0,3852.0
4202,1308.0,3371.0,3852.0
4203,1308.0,3371.0,3852.0
4204,1308.0,3371.0,3852.0
4205,1308.0,3371.0,3852.0
4206,572.0,3371.0,3852.0
4207,572.0,3371.0,3852.0
4208,572.0,3371.0,3852.0
4209,572.0,3371.0,3852.0
4210,57245.0,3371.0,3852.0
4211,945.0,3371.0,3852.0
4212,705.0,3371.0,3852.0
4213,705.0,3371.0,3852.0
4214,478.0,3371.0,3852.0
4215,478.0,3371.0,3852.0
4216,478.0,3371.0,3852.0
4217,478.0,3371.0,3852.0
4218,910.0,3371.0,3852.0
4219,910.0,3371.0,3852.0
4220,968.0,3371.0,3852.0
4221,968.0,3371.0,3852.0
4222,968.0,3371.0,3852.0
4223,968.0,3371.0,3852.0
4224,968.0,3371.0,3852.0
4225,968.0,3371.0,3852.0
4226,968.0,3371.0,3852.0
4227,968.0,3371.0,3852.0
4228,968.0,3371.0,3852.0
4229,968.0,3371.0,3852.0
4230,968.0,3371.0,3852.0
4231,1296.0,3371.0,3852.0
4232,1296.0,3371.0,3852.0
4233,1296.0,3371.0,3852.0
4234,1296.0,3371.0,3852.0
4235,1296.0,3666.0,3852.0
4236,791.0,3666.0,3852.0
4237,791.0,3666.0,3852.0
4238,791.0,3666.0,3852.0
4239,791.0,3666.0,3852.0
4240,791.0,3666.0,3852.0
4241,791.0,3666.0,3852.0
4242,791.0,3666.0,3852.0
4243,791.0,3666.0,3852.0
4244,791.0,3666.0,3852.0
4245,791.0,3666.0,3852.0
4246,1651.0,361651.0,3666.0
4247,533.0,3920.0,3920.0
5146,1155.0,658.0,2825.0
5147,1155.0,658.0,2825.0
5148,1155.0,658.0,2825.0
5149,1155.0,658.0,2825.0
5150,1155.0,658.0,2825.0
5151,1153.0,658.0,2825.0
5152,1153.0,658.0,2825.0
5153,1153.0,658.0,2825.0
5154,1153.0,658.0,2825.0
5155,1153.0,658.0,2825.0
5156,1153.0,548.0,2825.0
5157,1153.0,473.0,2825.0
5158,1153.0,522.0,2825.0
5159,1153.0,522.0,2825.0
5160,1672.0,404.0,2825.0
5161,1672.0,404.0,2825.0
5162,1672.0,613.0,2825.0
5163,1672.0,613.0,2825.0
5164,1672.0,613.0,2825.0
5165,1672.0,474.0,2825.0
5166,1672.0,474.0,2825.0
5167,1672.0,391.0,2825.0
5168,1672.0,391.0,2825.0
5169,818.0,391.0,2825.0
5170,818.0,391.0,2825.0
5171,818.0,391.0,2825.0
5172,818.0,391.0,2825.0
5173,818.0,247.0,2825.0
5174,818.0,247.0,2825.0
5175,818.0,247.0,2825.0
5176,818.0,247.0,2825.0
5177,818.0,460.0,2825.0
5178,818.0,460.0,2825.0
5179,818.0,460.0,2825.0
5180,818.0,460.0,2825.0
5181,818.0,744.0,2825.0
5182,818.0,771.0,2825.0
5183,818.0,771.0,2825.0
5184,818.0,771.0,2825.0
5185,818.0,879.0,2825.0
5186,818.0,879.0,2553.0
5187,818.0,879.0,2553.0
5188,818.0,879.0,2553.0
5189,818.0,879.0,2553.0
5190,818.0,879.0,3471.0
5191,818.0,879.0,3471.0
5192,818.0,702.0,3471.0
5193,818.0,702.0,3471.0
5194,2050.0,702.0,3471.0
5195,2050.0,702.0,3471.0
5196,2050.0,702.0,3471.0
5197,2050.0,702.0,3471.0
5198,2050.0,702.0,3471.0
5199,2050.0,454.0,3471.0
5200,2050.0,454.0,3471.0
5201,2050.0,328.0,3471.0
5202,2050.0,328.0,3471.0
5203,2050.0,328.0,3471.0
5204,2050.0,328.0,3471.0
5205,2050.0,677.0,3471.0
5206,2050.0,677.0,3471.0
5207,2050.0,576.0,3471.0
5208,2050.0,576.0,3471.0
5209,2050.0,576.0,3471.0
5210,2050.0,576.0,3471.0
5211,2050.0,576.0,3471.0
5212,2050.0,533.0,3471.0
5213,2050.0,757.0,3471.0
5214,2050.0,757.0,3471.0
5215,2050.0,757.0,3471.0
5216,2050.0,435.0,3471.0
5217,2050.0,435.0,3471.0
5218,2050.0,435.0,3471.0
5219,2050.0,435.0,3471.0
5220,2050.0,435.0,3471.0
5221,2050.0,435.0,3471.0
5222,2050.0,435.0,3471.0
5223,2050.0,435.0,3471.0
5224,2050.0,435.0,3471.0
5225,2050.0,435.0,3731.0
5226,1056.0,435.0,3731.0
5227,1056.0,435.0,3731.0
5228,1056.0,435.0,4097.0
5229,1056.0,435.0,4097.0
5230,1056.0,435.0,4097.0
5231,1056.0,435.0,4097.0
5232,915.0,565.0,3589.0
5233,915.0,565.0,3589.0
5234,915.0,565.0,3589.0
5235,915.0,565.0,3589.0
5236,915.0,577.0,4271.0
5237,915.0,577.0,4271.0
5238,915.0,577.0,4271.0
5239,915.0,577.0,4271.0
5240,915.0,993.0,4271.0
5241,915.0,993.0,4271.0
5242,915.0,993.0,4271.0
5243,915.0,1055.0,4271.0
5244,915.0,1055.0,4271.0
5245,915.0,1055.0,4271.0
5246,915.0,1055.0,4271.0
5247,915.0,490.0,4271.0
5248,915.0,490.0,4271.0
5249,915.0,998.0,4271.0
5250,915.0,998.0,4271.0
5251,915.0,998.0,4271.0
5252,915.0,998.0,4271.0
5253,915.0,998.0,4271.0
5254,915.0,998.0,4271.0
5255,915.0,998.0,4271.0
5256,915.0,998.0,4271.0
5257,1325.0,998.0,4271.0
5258,1325.0,998.0,4271.0
5259,1325.0,998.0,4271.0
5260,1325.0,998.0,4271.0
5261,837.0,998.0,4271.0
5262,837.0,998.0,4271.0
5263,1334.0,998.0,4271.0
5264,1334.0,998.0,4271.0
5265,1025.0,998.0,4271.0
5266,1025.0,998.0,4271.0
5267,1025.0,998.0,4271.0
5268,1025.0,998.0,4271.0
5269,11025.0,998.0,4271.0
5270,1025.0,998.0,4271.0
5271,25.0,1046.0,4271.0
5272,1025.0,1046.0,4271.0
5273,1025.0,349.0,4245.0
5274,1025.0,349.0,4245.0
5275,1025.0,349.0,4245.0
5276,1025.0,652.0,4245.0
5277,1025.0,652.0,4245.0
5278,1025.0,652.0,3207.0
5279,1025.0,652.0,3207.0
5280,1025.0,652.0,5424.0
5281,1025.0,652.0,5424.0
5282,1025.0,652.0,5424.0
5283,1025.0,652.0,5451.0
5284,1025.0,652.0,5451.0
5285,1025.0,652.0,5451.0
7048,635.0,1773.0,2741.0
7049,635.0,1773.0,2741.0
7050,635.0,1773.0,2741.0
7051,635.0,1773.0,2741.0
7052,635.0,1773.0,5685.0
7053,635.0,1773.0,5685.0
7054,635.0,1773.0,5685.0
7055,635.0,1773.0,5685.0
7056,635.0,1773.0,5685.0
7057,635.0,1773.0,5685.0
7058,635.0,1773.0,1938.0
7059,635.0,1773.0,2750.0
7060,635.0,1773.0,2750.0
7061,635.0,1773.0,2750.0
7062,635.0,1773.0,2750.0
7063,635.0,1773.0,2750.0
7064,635.0,1773.0,2750.0
7065,635.0,1773.0,2750.0
7066,635.0,1773.0,2750.0
7067,635.0,1773.0,2750.0
7068,635.0,1773.0,2750.0
7069,635.0,1773.0,3717.0
7070,635.0,1773.0,3717.0
7071,635.0,1773.0,3494.0
7072,635.0,1773.0,3494.0
7073,1252.0,1773.0,3494.0
7074,1252.0,1773.0,3494.0
7075,1252.0,1773.0,3494.0
7076,1252.0,1773.0,3494.0
7077,496.0,1773.0,3494.0
7078,496.0,1773.0,3494.0
7079,496.0,1773.0,3494.0
7080,893.0,1773.0,3494.0
7081,893.0,1773.0,3494.0
7082,893.0,1773.0,3494.0
7083,893.0,1773.0,3494.0
7084,893.0,1773.0,3494.0
7085,977.0,1773.0,3494.0
7086,1440.0,1773.0,3494.0
7087,1440.0,1773.0,3494.0
7088,1440.0,1773.0,3494.0
7089,389.0,1773.0,3494.0
7090,519.0,1773.0,3494.0
7091,519.0,1773.0,3494.0
7092,1107.0,1773.0,3494.0
7093,1107.0,1773.0,3494.0
7094,1107.0,1116.0,3494.0
7095,1107.0,1116.0,3494.0
7096,1107.0,1116.0,3494.0
7097,1107.0,1116.0,3494.0
7098,1107.0,1231.0,3494.0
7099,1107.0,1231.0,3494.0
7100,1107.0,1231.0,3494.0
7101,1107.0,1231.0,3494.0
7102,1107.0,1231.0,3494.0
7103,1107.0,1231.0,3494.0
7104,668.0,1231.0,3494.0
7105,313.0,1231.0,3494.0
7106,313.0,1231.0,3537.0
7107,526.0,1231.0,3537.0
7108,526.0,1231.0,3537.0
7109,526.0,1231.0,3537.0
7110,526.0,1231.0,3537.0
7111,526.0,1231.0,3537.0
7112,802.0,1231.0,3537.0
7113,802.0,1231.0,3537.0
7114,802.0,1231.0,3537.0
7115,802.0,1231.0,3537.0
7116,503.0,1231.0,3537.0
7117,715.0,1231.0,3537.0
7118,574.0,1231.0,3537.0
7119,719.0,1231.0,3537.0
7120,719.0,1231.0,3537.0
7121,719.0,1231.0,3537.0
7122,719.0,1231.0,3537.0
7123,59.0,1231.0,3537.0
7124,7128.0,1231.0,3537.0
7125,628.0,1231.0,3537.0
7126,628.0,1231.0,2665.0
7127,960.0,1231.0,2665.0
7128,960.0,1231.0,3189.0
7129,960.0,1231.0,3189.0
7130,960.0,1231.0,3189.0
7131,960.0,1231.0,3189.0
7132,960.0,1231.0,3189.0
7133,960.0,1231.0,3189.0
7134,960.0,1231.0,3189.0
7135,960.0,1231.0,3189.0
7136,960.0,1231.0,3189.0
7137,960.0,1231.0,3189.0
7138,960.0,1231.0,3189.0
7139,960.0,1231.0,3189.0
7140,960.0,1231.0,3189.0
7141,960.0,1471.0,3189.0
7142,960.0,781.0,3189.0
7143,960.0,781.0,3189.0
7144,960.0,781.0,3242.0
7145,960.0,781.0,3242.0
7146,960.0,781.0,3242.0
7147,960.0,781.0,3242.0
7148,960.0,1983.0,3242.0
7149,960.0,1983.0,3242.0
7150,960.0,1983.0,3242.0
7151,960.0,1983.0,3242.0
7152,960.0,1983.0,3242.0
7153,960.0,1983.0,3242.0
7154,960.0,1554.0,3242.0
7155,960.0,1554.0,3242.0
7156,960.0,1724.0,3242.0
7157,320.0,1724.0,3242.0
7158,320.0,1724.0,3242.0
7159,616.0,1724.0,3242.0
7160,529.0,1724.0,3242.0
7161,529.0,1724.0,3242.0
7162,632.0,1724.0,3242.0
7163,632.0,1724.0,3242.0
7164,610.0,1724.0,3242.0
7165,610.0,1724.0,3242.0
7166,429.0,1724.0,3242.0
7167,429.0,1724.0,3242.0
7168,429.0,1724.0,3242.0
7169,429.0,1724.0,3242.0
7170,429.0,1724.0,3242.0
7171,429.0,1724.0,3242.0
7172,429.0,1724.0,3242.0
7173,429.0,1724.0,3242.0
7174,429.0,1724.0,3242.0
7175,429.0,1724.0,3242.0
7176,429.0,1724.0,3242.0
7177,429.0,1724.0,2763.0
7178,429.0,1724.0,2763.0
7179,429.0,1724.0,2763.0
7180,429.0,1724.0,2763.0
7181,429.0,1724.0,2763.0
7182,429.0,1724.0,2763.0
7183,429.0,1823.0,2763.0
7184,429.0,1823.0,2763.0
8778,431.0,293.0,976.0
8779,431.0,429.0,976.0
8780,431.0,225.0,976.0
8781,431.0,703.0,976.0
8782,252.0,703.0,976.0
8783,252.0,703.0,976.0
8784,252.0,703.0,923.0
8785,252.0,703.0,923.0
8786,302.0,703.0,923.0
8787,302.0,703.0,923.0
8788,302.0,703.0,561.0
8789,302.0,703.0,561.0
8790,302.0,703.0,561.0
8791,302.0,703.0,455.0
8792,506.0,369.0,455.0
8793,483.0,369.0,1583.0
8794,483.0,369.0,1583.0
8795,483.0,369.0,1583.0
8796,483.0,125.0,1583.0
8797,483.0,125.0,686.0
8798,483.0,125.0,686.0
8799,483.0,617.0,686.0
8800,483.0,444.0,686.0
8801,483.0,444.0,686.0
8802,483.0,444.0,686.0
8803,483.0,352.0,686.0
8804,483.0,352.0,686.0
8805,483.0,352.0,686.0
8806,483.0,141.0,686.0
8807,483.0,141.0,686.0
8808,483.0,141.0,1065.0
8809,203.0,141.0,974.0
8810,203.0,141.0,974.0
8811,203.0,141.0,974.0
8812,294.0,141.0,974.0
8813,294.0,141.0,974.0
8814,730.0,141.0,974.0
8815,730.0,141.0,974.0
8816,730.0,141.0,974.0
8817,730.0,141.0,974.0
8818,50.0,222.0,974.0
8819,73730.0,222.0,974.0
8820,319.0,222.0,812.0
8821,319.0,222.0,812.0
8822,319.0,222.0,1765.0
8823,319.0,706.0,1765.0
8824,319.0,706.0,1765.0
8825,319.0,706.0,1765.0
8826,319.0,706.0,844.0
8827,319.0,706.0,1197.0
8828,319.0,706.0,1197.0
8829,319.0,706.0,666.0
8830,319.0,706.0,1253.0
8831,319.0,706.0,1253.0
8832,319.0,706.0,1253.0
8833,445.0,706.0,1253.0
8834,445.0,706.0,1253.0
8835,445.0,706.0,1253.0
8836,274.0,706.0,1253.0
8837,274.0,706.0,670.0
8838,274.0,706.0,974.0
8839,274.0,706.0,974.0
8840,274.0,341.0,974.0
8841,274.0,341.0,974.0
8842,274.0,595.0,974.0
8843,274.0,595.0,974.0
8844,202.0,595.0,971.0
8845,202.0,595.0,573.0
8846,202.0,595.0,573.0
8847,202.0,595.0,573.0
8848,202.0,595.0,1388.0
8849,202.0,375.0,1388.0
8850,202.0,375.0,1388.0
8851,202.0,498.0,1388.0
8852,202.0,498.0,1388.0
8853,202.0,498.0,1388.0
8854,202.0,199.0,1388.0
8855,202.0,199.0,1388.0
8856,202.0,199.0,1388.0
8857,202.0,439.0,1388.0
8858,202.0,439.0,1388.0
8859,202.0,244.0,1388.0
8860,202.0,244.0,1388.0
8861,350.0,244.0,1388.0
8862,367.0,244.0,1388.0
8863,367.0,244.0,1388.0
8864,367.0,244.0,1388.0
8865,554.0,244.0,1388.0
8866,554.0,244.0,1075.0
8867,400.0,414.0,1075.0
8868,4000.0,200.0,1075.0
8869,265.0,357.0,2162.0
8870,265.0,357.0,2162.0
8871,265.0,357.0,924.0
8872,265.0,357.0,924.0
8873,265.0,253.0,924.0
8874,265.0,253.0,924.0
8875,265.0,253.0,879.0
8876,265.0,253.0,879.0
8877,265.0,253.0,879.0
8878,265.0,253.0,534.0
8879,265.0,253.0,534.0
8880,265.0,253.0,534.0
8881,265.0,477.0,534.0
8882,265.0,229.0,534.0
8883,265.0,229.0,534.0
8884,975.0,229.0,534.0
8885,397.0,229.0,534.0
8886,397.0,229.0,534.0
8887,675.0,229.0,534.0
8888,675.0,229.0,534.0
8889,675.0,229.0,534.0
8890,675.0,229.0,534.0
8891,271.0,229.0,534.0
8892,271.0,229.0,534.0
8893,271.0,350.0,534.0
8894,271.0,350.0,534.0
8895,271.0,350.0,534.0
8896,407.0,257.0,534.0
8897,407.0,257.0,921.0
8898,407.0,257.0,497.0
8899,407.0,257.0,497.0
8900,407.0,257.0,1393.0
8901,407.0,257.0,864.0
8902,407.0,257.0,694.0
8903,407.0,257.0,694.0
8904,407.0,225.0,694.0
8905,407.0,225.0,694.0
8906,407.0,230.0,694.0
8907,407.0,230.0,694.0
8908,407.0,479.0,694.0
8909,407.0,479.0,694.0
8910,407.0,531.0,694.0
8911,407.0,531.0,973.0
8912,237.0,531.0,973.0
10677,412.0,191.0,1055.0
10678,412.0,191.0,1055.0
10679,412.0,191.0,1055.0
10680,412.0,227.0,1055.0
10681,412.0,227.0,1055.0
10682,412.0,169.0,1055.0
10683,412.0,169.0,266.0
10684,412.0,169.0,266.0
10685,412.0,261.0,266.0
10686,599.0,261.0,266.0
10687,139.0,261.0,266.0
10688,556.0,261.0,266.0
10689,556.0,261.0,266.0
10690,556.0,261.0,266.0
10691,556.0,261.0,266.0
10692,556.0,261.0,266.0
10693,556.0,261.0,717.0
10694,556.0,261.0,717.0
10695,603.0,261.0,717.0
10696,603.0,261.0,717.0
10697,603.0,170.0,717.0
10698,603.0,679.0,1508.0
10699,603.0,242.0,1508.0
10700,603.0,242.0,1508.0
10701,603.0,148.0,1508.0
10702,603.0,148.0,1508.0
10703,164.0,148.0,1508.0
10704,164.0,148.0,189.0
10705,164.0,148.0,189.0
10706,164.0,148.0,189.0
10707,164.0,148.0,189.0
10708,164.0,148.0,189.0
10709,164.0,148.0,189.0
10710,164.0,148.0,189.0
10711,164.0,150.0,189.0
10712,164.0,150.0,189.0
10713,164.0,150.0,189.0
10714,164.0,150.0,189.0
10715,164.0,150.0,189.0
10716,164.0,150.0,189.0
10717,164.0,150.0,189.0
10718,382.0,150.0,709.0
10719,382.0,150.0,709.0
10720,382.0,150.0,709.0
10721,382.0,150.0,709.0
10722,382.0,150.0,709.0
10723,382.0,150.0,709.0
10724,382.0,150.0,709.0
10725,382.0,150.0,709.0
10726,382.0,150.0,709.0
10727,382.0,150.0,709.0
10728,382.0,150.0,709.0
10729,322.0,150.0,709.0
10730,322.0,284.0,709.0
10731,38200.0,407.0,709.0
10732,322.0,407.0,709.0
10733,322.0,407.0,1104.0
10734,322.0,407.0,1104.0
10735,322.0,407.0,1104.0
10736,322.0,407.0,1104.0
10737,411.0,407.0,1104.0
10738,411.0,407.0,1104.0
10739,160.0,407.0,625.0
10740,160.0,407.0,625.0
10741,160.0,407.0,625.0
10742,160.0,407.0,625.0
10743,160.0,407.0,625.0
10744,160.0,407.0,625.0
10745,160.0,407.0,505.0
10746,160.0,407.0,505.0
10747,160.0,407.0,996.0
10748,579.0,407.0,586.0
10749,579.0,407.0,586.0
10750,520.0,407.0,586.0
10751,520.0,407.0,1532.0
10752,520.0,407.0,1532.0
10753,520.0,407.0,580.0
10754,520.0,407.0,776.0
10755,3020.0,407.0,776.0
10756,520.0,432.0,776.0
10757,520.0,236.0,776.0
10758,520.0,236.0,776.0
10759,520.0,126.0,776.0
10760,520.0,126.0,776.0
10761,520.0,126.0,776.0
10762,492.0,126.0,1045.0
10763,492.0,126.0,1045.0
10764,492.0,563.0,1045.0
10765,492.0,563.0,1045.0
10766,242.0,563.0,1045.0
10767,242.0,563.0,1045.0
10768,242.0,194.0,1045.0
10769,242.0,144.0,1045.0
10770,242.0,144.0,1203.0
10771,443.0,144.0,850.0
10772,443.0,144.0,850.0
10773,443.0,144.0,850.0
10774,5283.0,144.0,850.0
10775,2283.0,144.0,592.0
10776,283.0,144.0,592.0
10777,283.0,144.0,592.0
10778,283.0,144.0,592.0
10779,283.0,144.0,987.0
10780,283.0,144.0,987.0
10781,283.0,144.0,987.0
10782,283.0,144.0,845.0
10783,283.0,144.0,845.0
10784,283.0,144.0,1100.0
10785,283.0,144.0,1100.0
10786,604.0,144.0,1100.0
10787,604.0,144.0,1100.0
10788,604.0,144.0,1100.0
10789,604.0,144.0,1100.0
10790,604.0,144.0,1100.0
10791,604.0,144.0,1100.0
10792,604.0,147.0,1100.0
10793,604.0,147.0,1100.0
10794,604.0,147.0,1100.0
10795,604.0,147.0,1100.0
10796,604.0,147.0,1100.0
10797,450.0,147.0,1100.0
10798,450.0,147.0,1219.0
10799,450.0,147.0,1219.0
10800,450.0,147.0,1219.0
10801,450.0,147.0,1219.0
10802,450.0,147.0,1219.0
10803,450.0,147.0,1219.0
10804,450.0,147.0,1219.0
10805,450.0,147.0,1219.0
10806,450.0,147.0,1219.0
10807,450.0,147.0,1219.0
10808,450.0,147.0,1219.0
10809,450.0,147.0,1219.0
10810,450.0,147.0,1219.0
10811,450.0,147.0,828.0
10812,450.0,147.0,828.0
12440,2775.0,942775.0,945.0
12441,1084.0,2094.0,377.0
12442,1084.0,2094.0,377.0
12443,1084.0,2094.0,377.0
12444,1084.0,2094.0,377.0
12445,1084.0,2094.0,377.0
12446,1084.0,2094.0,302.0
12447,1084.0,2094.0,302.0
12448,1084.0,2094.0,302.0
12449,1084.0,2094.0,302.0
12450,1084.0,2094.0,302.0
12451,1084.0,2094.0,302.0
12452,1084.0,2094.0,302.0
12453,1084.0,2094.0,302.0
12454,1084.0,2094.0,302.0
12455,1084.0,2094.0,302.0
12456,1084.0,2094.0,268.0
12457,1084.0,2094.0,268.0
12458,1084.0,2094.0,268.0
12459,1084.0,2094.0,268.0
12460,1084.0,2094.0,268.0
12461,1084.0,2094.0,268.0
12462,1084.0,2094.0,268.0
12463,1084.0,2094.0,210.0
12464,1084.0,2094.0,210.0
12465,1084.0,2094.0,318.0
12466,1084.0,2094.0,440.0
12467,1084.0,2094.0,440.0
12468,1084.0,2094.0,440.0
12469,1084.0,2094.0,440.0
12470,1084.0,2094.0,440.0
12471,1084.0,2094.0,660.0
12472,1084.0,2094.0,660.0
12473,1084.0,2094.0,660.0
12474,1084.0,2094.0,660.0
12475,1084.0,2094.0,524.0
12476,1084.0,2094.0,524.0
12477,1084.0,2094.0,524.0
12478,3401.0,2094.0,524.0
12479,3401.0,2094.0,524.0
12480,3401.0,2094.0,524.0
12481,3401.0,2094.0,524.0
12482,3401.0,2094.0,524.0
12483,3401.0,2094.0,524.0
12484,3401.0,2094.0,524.0
12485,3401.0,2094.0,524.0
12486,3401.0,2094.0,524.0
12487,3401.0,2094.0,524.0
12488,3401.0,2094.0,524.0
12489,3401.0,2094.0,524.0
12490,3401.0,2094.0,524.0
12491,3401.0,2094.0,524.0
12492,3401.0,2094.0,524.0
12493,3401.0,2094.0,524.0
12494,3401.0,2094.0,182.0
12495,3401.0,2094.0,535.0
12496,3401.0,2094.0,535.0
12497,3401.0,2094.0,133.0
12498,3401.0,2094.0,133.0
12499,3401.0,2094.0,133.0
12500,3401.0,2094.0,133.0
12501,3401.0,2094.0,133.0
12502,3401.0,2094.0,133.0
12503,3401.0,2094.0,133.0
12504,3401.0,2094.0,133.0
12505,3401.0,2094.0,460.0
12506,3401.0,2094.0,582.0
12507,3401.0,2094.0,616.0
12508,3401.0,2094.0,616.0
12509,3401.0,2094.0,616.0
12510,3401.0,2094.0,230.0
12511,3401.0,2094.0,230.0
12512,3401.0,2094.0,230.0
12513,3401.0,2094.0,230.0
12514,3401401.0,2094.0,230.0
12515,33401.0,2094.0,230.0
12516,3401.0,2094.0,230.0
12517,3401.0,2094.0,230.0
12518,3401.0,2094.0,230.0
12519,3401.0,2094.0,230.0
12520,3401.0,2094.0,230.0
12521,3401.0,2094.0,230.0
12522,3401.0,2094.0,230.0
12523,3401.0,2094.0,230.0
12524,3401.0,2094.0,230.0
12525,3401.0,2094.0,361.0
12526,3401.0,2094.0,361.0
12527,3401.0,2094.0,361.0
12528,3401.0,2094.0,361.0
12529,3401.0,2094.0,361.0
12530,3401.0,2094.0,361.0
12531,3401.0,2094.0,361.0
12532,3401.0,2094.0,611.0
12533,3401.0,2094.0,611.0
12534,3401.0,2094.0,611.0
12535,3401.0,2094.0,611.0
12536,3401.0,2094.0,611.0
12537,3401.0,2094.0,611.0
12538,3401.0,2094.0,611.0
12539,3401.0,2094.0,305.0
12540,3401.0,2094.0,305.0
12541,3401.0,2094.0,305.0
12542,3401.0,2094.0,305.0
12543,3401.0,2094.0,305.0
12544,3401.0,2094.0,305.0
12545,3401.0,2094.0,305.0
12546,3401.0,2094.0,305.0
12547,3401.0,2094.0,305.0
12548,3401.0,2094.0,305.0
12549,3401.0,2094.0,305.0
12550,3401.0,2094.0,543.0
12551,3401.0,2094.0,543.0
12552,3401.0,2094.0,543.0
12553,3401.0,2094.0,543.0
12554,3401.0,2094.0,543.0
12555,3401.0,2094.0,543.0
12556,3011.0,2094.0,543.0
12557,3011.0,2094.0,543.0
12558,33011.0,2094.0,543.0
12559,2719.0,2094.0,543.0
12560,2719.0,2094.0,506.0
12561,2719.0,2094.0,506.0
12562,2719.0,2094.0,506.0
14213,2207.0,1192.0,393.0
14214,2207.0,1192.0,393.0
14215,1349.0,1192.0,393.0
14216,1349.0,1192.0,393.0
14217,1636.0,1192.0,393.0
14218,1636.0,1192.0,393.0
14219,1636.0,1192.0,393.0
14220,1636.0,1192.0,393.0
14221,924.0,1980.0,393.0
14222,2135.0,1980.0,393.0
14223,2135.0,2701.0,393.0
14224,2135.0,2701.0,393.0
14225,2135.0,1948.0,393.0
14226,2135.0,1948.0,393.0
14227,2135.0,1948.0,393.0
14228,2135.0,2074.0,393.0
14229,2135.0,2074.0,393.0
14230,2135.0,2074.0,393.0
14231,2135.0,2074.0,393.0
14232,2135.0,2074.0,393.0
14233,2135.0,2074.0,393.0
14234,2135.0,2074.0,393.0
14235,2135.0,2074.0,393.0
14236,2135.0,2074.0,393.0
14237,2135.0,2074.0,393.0
14238,2135.0,2074.0,535.0
14239,2135.0,2074.0,535.0
14240,2135.0,2828.0,535.0
14241,2135.0,2828.0,535.0
14242,2135.0,2828.0,535.0
14243,2135.0,2828.0,535.0
14244,2135.0,2828.0,535.0
14245,2135.0,2828.0,535.0
14246,2135.0,2828.0,535.0
14247,2135.0,2828.0,535.0
14248,2135.0,2828.0,464.0
14249,3548.0,2828.0,464.0
14250,1610.0,2828.0,464.0
14251,1610.0,2828.0,464.0
14252,1610.0,2828.0,464.0
14253,1610.0,2828.0,549.0
14254,1610.0,2828.0,549.0
14255,1610.0,2828.0,320.0
14256,1610.0,2828.0,320.0
14257,1610.0,2828.0,320.0
14258,1610.0,2828.0,626.0
14259,1610.0,2828.0,626.0
14260,1610.0,2828.0,626.0
14261,1610.0,2828.0,626.0
14262,1610.0,2828.0,632.0
14263,1610.0,2828.0,632.0
14264,1225.0,2828.0,632.0
14265,1225.0,2828.0,632.0
14266,2333.0,2828.0,632.0
14267,2333.0,2828.0,632.0
14268,2333.0,2828.0,632.0
14269,18.0,2828.0,632.0
14270,2333333.0,2828.0,632.0
14271,2254.0,2828.0,632.0
14272,2254.0,3634.0,632.0
14273,2254.0,3634.0,632.0
14274,2254.0,3634.0,632.0
14275,2254254.0,3634.0,632.0
14276,2254.0,3634.0,632.0
14277,2254.0,3092.0,632.0
14278,2254.0,3092.0,632.0
14279,2254.0,3092.0,632.0
14280,2254.0,3092.0,632.0
14281,2254.0,3092.0,632.0
14282,2254.0,3092.0,479.0
14283,2254.0,3092.0,281.0
14284,2254.0,3092.0,281.0
14285,2254.0,3092.0,281.0
14286,2254.0,1477.0,281.0
14287,2254.0,1477.0,281.0
14288,2254.0,1477.0,281.0
14289,2254.0,1477.0,281.0
14290,2254.0,1477.0,281.0
14291,2254.0,1477.0,281.0
14292,2254.0,1477.0,281.0
14293,2254.0,1477.0,281.0
14294,2254.0,1477.0,281.0
14295,2254.0,1477.0,281.0
14296,2254.0,1477.0,281.0
14297,2254.0,1477.0,281.0
14298,2254.0,1477.0,281.0
14299,2254.0,1477.0,281.0
14300,2254.0,1477.0,168.0
14301,2254.0,1477.0,168.0
14302,2254.0,1477.0,168.0
14303,2254.0,1477.0,168.0
14304,2254.0,1477.0,168.0
14305,2254.0,1477.0,168.0
14306,2254.0,1477.0,168.0
14307,2254.0,1477.0,168.0
14308,2254.0,1477.0,451.0
14309,2254.0,1477.0,451.0
14310,2085.0,1477.0,451.0
14311,2085.0,1477.0,451.0
14312,2085.0,1477.0,451.0
14313,225.0,1477.0,390.0
14314,2082085.0,1477.0,390.0
14315,2085.0,1477.0,390.0
14316,2085.0,1477.0,390.0
14317,2085.0,1477.0,669.0
14318,2085.0,1477.0,669.0
14319,2085.0,1477.0,669.0
14320,2085.0,1477.0,669.0
14321,2085.0,1477.0,669.0
14322,2085.0,1477.0,669.0
14323,2085.0,1477.0,669.0
14324,2085.0,1477.0,669.0
14325,2085.0,1477.0,669.0
14326,2085.0,2430.0,669.0
14327,2085.0,2430.0,669.0
14328,2085.0,2430.0,669.0
14329,2085.0,2430.0,669.0
14330,2085.0,2430.0,669.0
14331,2085.0,2430.0,669.0
14332,2085.0,2430.0,669.0
14333,2085.0,2430.0,669.0
14334,2085.0,2430.0,669.0
14335,2085.0,2430.0,669.0
14336,2085.0,2430.0,669.0
14337,2085.0,2430.0,669.0
14338,2085.0,2430.0,669.0
14339,1766.0,2430.0,669.0
14340,1766.0,2430.0,669.0
14341,1766.0,2430.0,669.0
14342,1766.0,2430.0,626.0
14343,1766.0,2430.0,626.0
14344,1766.0,2430.0,626.0
14345,1766.0,2430.0,465.0
14346,1766.0,2430.0,465.0
14347,1766.0,2430.0,285.0
14348,1766.0,2430.0,285.0
14349,1766.0,2430.0,285.0
15919,2567.0,2153.0,1589.0
15920,2567.0,2814.0,1589.0
15921,2567.0,1125.0,1589.0
15922,2567.0,1125.0,1589.0
15923,2567.0,1125.0,1589.0
15924,1730711.0,2250.0,1589.0
15925,22711.0,1454.0,1589.0
15926,2711.0,2691.0,1589.0
15927,2711.0,2691.0,1589.0
15928,2711.0,2691.0,1589.0
15929,2711.0,1647.0,1589.0
15930,2711.0,2451.0,1589.0
15931,2711.0,2451.0,3310.0
15932,2711.0,2451.0,2819.0
15933,2711.0,2451.0,2819.0
15934,2711.0,2451.0,2819.0
15935,2711.0,2451.0,2819.0
15936,2711.0,3353.0,2819.0
15937,2711.0,3353.0,2819.0
15938,2711.0,3023.0,2819.0
15939,2711.0,3023.0,2819.0
15940,2711.0,3901.0,2819.0
15941,27111.0,3901.0,2819.0
15942,272711.0,3901.0,2819.0
15943,2711.0,3901.0,1579.0
15944,2711.0,3901.0,1579.0
15945,2711.0,3901.0,1579.0
15946,11.0,3901.0,1579.0
15947,2785.0,3901.0,1579.0
15948,21185.0,2415.0,1579.0
15949,2185.0,2415.0,1579.0
15950,2185.0,2415.0,1579.0
15951,2185.0,1802.0,1579.0
15952,2185.0,1802.0,1579.0
15953,2185.0,3432.0,1579.0
15954,2185.0,3432.0,1579.0
15955,712.0,3432.0,1579.0
15956,712.0,3432.0,1579.0
15957,712.0,3432.0,1579.0
15958,712.0,3432.0,1176.0
15959,712.0,3432.0,1176.0
15960,712.0,3432.0,1176.0
15961,712.0,3432.0,1176.0
15962,712.0,3432.0,1176.0
15963,712.0,3432.0,1176.0
15964,712.0,3432.0,1176.0
15965,712.0,3432.0,1176.0
15966,12.0,1316.0,1176.0
15967,712.0,2018.0,1176.0
15968,712.0,2018.0,1176.0
15969,712.0,2455.0,1176.0
15970,712.0,2455.0,1176.0
15971,1818.0,2397.0,1176.0
15972,11818.0,2806.0,1176.0
15973,1818.0,2806.0,1176.0
15974,3476.0,2806.0,1176.0
15975,3476.0,2806.0,1176.0
15976,2106.0,2806.0,1176.0
15977,2106.0,4525.0,1176.0
15978,2106.0,4525.0,1176.0
15979,2326.0,4525.0,1176.0
15980,2326.0,4525.0,1176.0
15981,2326.0,4525.0,1176.0
15982,326.0,4525.0,1176.0
15983,2326.0,3148.0,1176.0
15984,2326.0,5446.0,1176.0
15985,2326.0,5446.0,1176.0
15986,2326.0,5446.0,1176.0
15987,2326.0,5446.0,1176.0
15988,2326.0,2103.0,1176.0
15989,2326.0,2103.0,1176.0
15990,2326.0,2103.0,1176.0
15991,2326.0,2103.0,1176.0
15992,2110.0,2103.0,1176.0
15993,3018.0,2103.0,1176.0
15994,3018.0,2103.0,1176.0
15995,3018.0,2103.0,1176.0
15996,3018.0,2103.0,1176.0
15997,3018.0,2103.0,1176.0
15998,2438.0,2103.0,1176.0
15999,2438.0,2103.0,1176.0
16000,2438.0,2103.0,1176.0
16001,931.0,2103.0,1176.0
16002,931.0,2103.0,1176.0
16003,931.0,2103.0,1176.0
16004,931.0,2103.0,1176.0
16005,1435.0,2103.0,1176.0
16006,200.0,2103.0,1176.0
16007,3064.0,2103.0,1176.0
16008,3064.0,2103.0,1176.0
16009,3064.0,2103.0,1176.0
16010,3064.0,2103.0,1176.0
16011,3064.0,2103.0,1176.0
16012,1521.0,2103.0,1176.0
16013,1521.0,2103.0,1176.0
16014,1521.0,2103.0,1176.0
16015,1521.0,2103.0,1176.0
16016,3127.0,2103.0,1176.0
16017,3127.0,2103.0,1176.0
16018,930.0,2103.0,1176.0
16019,1438.0,2103.0,1176.0
16020,1438.0,2103.0,1176.0
16021,2419.0,2103.0,1176.0
16022,2419.0,3656.0,1176.0
16023,2419.0,3656.0,1176.0
16024,2419.0,3656.0,1176.0
16025,2419.0,3656.0,1176.0
16026,1271.0,3656.0,1176.0
16027,1271.0,3656.0,1176.0
16028,2368.0,3656.0,1176.0
16029,2368.0,3656.0,1176.0
16030,2368.0,3656.0,1176.0
16031,2368.0,3656.0,1176.0
16032,2368.0,3656.0,1176.0
16033,740.0,3656.0,1176.0
16034,740.0,3656.0,1176.0
16035,740.0,3656.0,1176.0
16036,740.0,3656.0,1176.0
16037,740.0,3656.0,1176.0
16038,740.0,5452.0,1176.0
16039,740.0,5452.0,1176.0
16040,740.0,5452.0,1176.0
16041,740.0,5452.0,1176.0
16042,740.0,5452.0,1176.0
16043,740.0,5452.0,1176.0
16044,740.0,5452.0,1176.0
16045,740.0,5452.0,1176.0
16046,740.0,5452.0,1176.0
16047,740.0,5452.0,1176.0
16048,740.0,5452.0,1176.0
16049,740.0,5452.0,1176.0
16050,740.0,5452.0,1176.0
16051,740.0,5452.0,1176.0
16052,740.0,5452.0,1176.0
16053,740.0,5452.0,1176.0
16054,3566.0,5452.0,1176.0
16055,3566.0,5452.0,1176.0
16056,3357.0,5452.0,1176.0
16057,3357.0,5452.0,1176.0
16058,1283.0,5452.0,1176.0
16059,1283.0,5452.0,1176.0
16060,1283.0,5452.0,1176.0
16061,1283.0,5452.0,1176.0
17784,1384.0,979.0,3693.0
17785,2559.0,979.0,3693.0
17786,1465.0,979.0,3693.0
17787,1465.0,979.0,3693.0
17788,1465.0,979.0,3693.0
17789,1465.0,979.0,3693.0
17790,1465.0,979.0,3693.0
17791,1465.0,979.0,3693.0
17792,1465.0,1018.0,3693.0
17793,1465.0,1018.0,3693.0
17794,1465.0,1018.0,3693.0
17795,1465.0,1018.0,3693.0
17796,1465.0,1018.0,3693.0
17797,1465.0,1018.0,3693.0
17798,1465.0,1018.0,3693.0
17799,1465.0,1018.0,3693.0
17800,1465.0,1018.0,3693.0
17801,1465.0,1018.0,3693.0
17802,1465.0,1018.0,3693.0
17803,1465.0,1018.0,3693.0
17804,1465.0,1018.0,3693.0
17805,1465.0,1018.0,3693.0
17806,1465.0,1018.0,3693.0
17807,1465.0,1018.0,3693.0
17808,1465.0,1018.0,3693.0
17809,1465.0,1018.0,3693.0
17810,1465.0,1018.0,3693.0
17811,1465.0,1018.0,3693.0
17812,1465.0,1018.0,3693.0
17813,1465.0,1018.0,3693.0
17814,1465.0,1018.0,3693.0
17815,1465.0,1018.0,3693.0
17816,1465.0,1018.0,3693.0
17817,1465.0,1018.0,3693.0
17818,1465.0,1018.0,3693.0
17819,1465.0,1018.0,3693.0
17820,1465.0,1159.0,3693.0
17821,1465.0,1159.0,3693.0
17822,1465.0,1159.0,3693.0
17823,1465.0,1159.0,3693.0
17824,1465.0,1233.0,3693.0
17825,1465.0,1233.0,3693.0
17826,1465.0,1233.0,3693.0
17827,1465.0,1233.0,3693.0
17828,1465.0,732.0,3693.0
17829,1465.0,732.0,3693.0
17830,1465.0,732.0,3693.0
17831,1465.0,732.0,3693.0
17832,1465.0,732.0,3693.0
17833,1465.0,732.0,3693.0
17834,1465.0,732.0,3693.0
17835,1465.0,732.0,3693.0
17836,1465.0,732.0,3693.0
17837,1465.0,732.0,3693.0
17838,1465.0,732.0,3693.0
17839,1465.0,751.0,3693.0
17840,1465.0,751.0,3693.0
17841,1766.0,751.0,3693.0
17842,1766.0,751.0,3693.0
17843,1156.0,751.0,3693.0
17844,1684.0,751.0,3693.0
17845,1684.0,751.0,3693.0
17846,1684.0,751.0,3693.0
17847,1684.0,751.0,3693.0
17848,1674.0,751.0,3693.0
17849,1674.0,751.0,3693.0
17850,1674.0,751.0,3693.0
17851,1674.0,751.0,3693.0
17852,1674.0,751.0,3693.0
17853,1674.0,751.0,3693.0
17854,1674.0,773.0,3693.0
17855,1674.0,773.0,3693.0
17856,1944.0,773.0,3693.0
17857,1944.0,773.0,3693.0
17858,1944.0,778.0,3693.0
17859,1944.0,778.0,3693.0
17860,1944.0,595.0,3693.0
17861,1270.0,595.0,3693.0
17862,1270.0,595.0,3693.0
17863,1270.0,595.0,3693.0
17864,1270.0,595.0,3693.0
17865,1913.0,595.0,3693.0
17866,1913.0,595.0,3693.0
17867,2271.0,595.0,3693.0
17868,2271.0,595.0,3693.0
17869,2271.0,595.0,3693.0
17870,2271.0,595.0,3693.0
17871,2271.0,595.0,3693.0
17872,2271.0,595.0,3693.0
17873,2271.0,595.0,3693.0
17874,2271.0,595.0,3693.0
17875,2271.0,595.0,3693.0
17876,2271.0,595.0,3693.0
17877,2271.0,595.0,3693.0
17878,1018.0,595.0,3693.0
17879,1018.0,595.0,3693.0
17880,1018.0,595.0,3693.0
17881,1018.0,595.0,3693.0
17882,1018.0,595.0,3693.0
17883,22837.0,595.0,3693.0
17884,2837.0,595.0,3693.0
17885,2837.0,595.0,3693.0
17886,639.0,595.0,3693.0
17887,2322.0,595.0,3693.0
17888,2322.0,595.0,3693.0
17889,2322.0,595.0,3693.0
17890,2322.0,595.0,3693.0
17891,2322322.0,595.0,3693.0
17892,2322.0,595.0,3693.0
17893,1193.0,595.0,3693.0
17894,1193.0,595.0,3693.0
17895,1193.0,595.0,3693.0
17896,1193.0,595.0,3693.0
17897,1193.0,595.0,3693.0
17898,1462.0,595.0,3693.0
17899,1462.0,595.0,3693.0
17900,1462.0,595.0,3693.0
17901,1462.0,595.0,3693.0
17902,1462.0,595.0,3693.0
17903,1462.0,595.0,3693.0
17904,1462.0,595.0,3693.0
17905,1462.0,595.0,3693.0
17906,1462.0,595.0,3693.0
17907,1462.0,595.0,3693.0
17908,1462.0,595.0,3693.0
17909,1462.0,1210.0,3693.0
17910,1462.0,1210.0,3693.0
17911,1462.0,1210.0,3693.0
17912,1462.0,1210.0,3693.0
17913,1462.0,1210.0,3693.0
17914,2098.0,1210.0,3693.0
17915,2098.0,1210.0,3693.0
17916,2098.0,1210.0,3693.0
17917,2098.0,1210.0,3693.0
17918,2098.0,1210.0,3693.0
17919,2098.0,1210.0,3693.0
17920,2098.0,1210.0,3693.0
17921,2098.0,1210.0,3693.0
18657,1237.0,2517.0,1228.0
18658,1237.0,2517.0,1228.0
18659,1237.0,2517.0,1228.0
18660,1237.0,2517.0,1228.0
18661,1278.0,2517.0,1228.0
18662,1278.0,2517.0,1228.0
18663,2227.0,2517.0,1228.0
18664,2227.0,2517.0,1228.0
18665,2227.0,2517.0,1228.0
18666,2227.0,2517.0,1228.0
18667,2227.0,2517.0,1228.0
18668,1404.0,2517.0,1228.0
18669,1114.0,2517.0,1228.0
18670,1114.0,2517.0,1228.0
18671,1988.0,2517.0,1228.0
18672,1988.0,2517.0,1228.0
18673,1988.0,2517.0,1228.0
18674,1183.0,2517.0,1228.0
18675,1183.0,2517.0,1228.0
18676,1853.0,2517.0,1228.0
18677,1853.0,2517.0,1228.0
18678,1853.0,2517.0,1228.0
18679,1006.0,2517.0,1228.0
18680,1006.0,2517.0,1228.0
18681,1006.0,2517.0,1228.0
18682,781.0,2517.0,1228.0
18683,1375.0,2517.0,1228.0
18684,1375.0,2517.0,1228.0
18685,1375.0,2517.0,1228.0
18686,636.0,2970.0,1228.0
18687,636.0,2970.0,1228.0
18688,1514.0,2970.0,1228.0
18689,1514.0,2970.0,1228.0
18690,1514.0,2970.0,1228.0
18691,1514.0,2970.0,1228.0
18692,975.0,2970.0,1228.0
18693,975.0,2970.0,1228.0
18694,1341.0,2970.0,1228.0
18695,1341.0,2970.0,1228.0
18696,1341.0,2970.0,1228.0
18697,1076.0,2970.0,1228.0
18698,1076.0,2970.0,1228.0
18699,1076.0,2970.0,1228.0
18700,1076.0,2970.0,1228.0
18701,1076.0,2970.0,1228.0
18702,1048.0,2970.0,1228.0
18703,1048.0,2970.0,1228.0
18704,1048.0,2970.0,1228.0
18705,1048.0,2970.0,1228.0
18706,1481.0,2970.0,1228.0
18707,1481.0,2970.0,1228.0
18708,1481.0,2970.0,1228.0
18709,1481.0,2970.0,1228.0
18710,1481.0,2970.0,1228.0
18711,1481.0,2970.0,1228.0
18712,1481.0,2970.0,1228.0
18713,2119.0,2970.0,1228.0
18714,2119.0,2970.0,1228.0
18715,2119.0,2970.0,1228.0
18716,2119.0,2970.0,1228.0
18717,2119.0,2970.0,1228.0
18718,2119.0,2970.0,1228.0
18719,2119.0,2970.0,1228.0
18720,2119.0,2970.0,1228.0
18721,2119.0,2970.0,1228.0
18722,1107.0,2970.0,1228.0
18723,1107.0,2970.0,1228.0
18724,1593.0,2970.0,1228.0
18725,909.0,2970.0,1228.0
18726,1198.0,2970.0,1228.0
18727,1198.0,2970.0,1228.0
18728,522.0,2970.0,1228.0
18729,522.0,2970.0,1228.0
18730,522.0,2970.0,1228.0
18731,1379.0,2970.0,1228.0
18732,1379.0,2970.0,1228.0
18733,1379.0,2970.0,1228.0
18734,1379.0,2970.0,1228.0
18735,1303.0,2970.0,1228.0
18736,1303.0,2970.0,1228.0
18737,1718.0,2970.0,1228.0
18738,1672.0,2970.0,1228.0
18739,1672.0,2970.0,1228.0
18740,1150.0,2970.0,1228.0
18741,1150.0,2970.0,1228.0
18742,1150.0,2970.0,1228.0
18743,1150.0,2970.0,1228.0
18744,1150.0,2970.0,1228.0
18745,1150.0,2970.0,1228.0
18746,1150.0,2970.0,1228.0
18747,1150.0,2970.0,1228.0
18748,1150.0,2970.0,1228.0
18749,1150.0,2970.0,1228.0
18750,1150.0,2970.0,1228.0
18751,1150.0,2970.0,1228.0
18752,1150.0,2970.0,1228.0
18753,1594.0,2970.0,1228.0
18754,1594.0,2970.0,1228.0
18755,1175.0,2970.0,3557.0
18756,964.0,2970.0,3557.0
18757,964.0,2970.0,3557.0
18758,918.0,2970.0,3557.0
18759,918.0,2970.0,3557.0
18760,923.0,2970.0,3557.0
18761,923.0,2970.0,3557.0
18762,2432.0,2970.0,3557.0
18763,1268.0,2970.0,3557.0
18764,897.0,2970.0,3557.0
18765,1.0,2970.0,3557.0
18766,897.0,2970.0,3557.0
18767,1908.0,2970.0,3557.0
18768,1908.0,2970.0,3557.0
18769,1908.0,2970.0,3557.0
18770,1908.0,2970.0,3557.0
18771,1908.0,2970.0,3557.0
18772,1908.0,2970.0,3557.0
18773,1908.0,2970.0,3557.0
18774,1908.0,2970.0,3557.0
18775,1908.0,2970.0,3557.0
18776,1318.0,2970.0,3557.0
18777,1318.0,2970.0,3557.0
18778,1318.0,2970.0,3557.0
18779,1318.0,2970.0,3557.0
18780,1318.0,2970.0,3557.0
18781,1318.0,2970.0,3557.0
18782,1318.0,2970.0,3557.0
18783,1318.0,2970.0,3557.0
18784,1318.0,2970.0,3557.0
18785,1318.0,2970.0,3557.0
18786,1318.0,2970.0,3557.0
18787,1318.0,2970.0,3557.0
18788,1533.0,2970.0,3557.0
18789,1533.0,2970.0,3557.0
19845,847.0,1885.0,1372.0
19846,991.0,11.0,1372.0
21164,1201.0,1468.0,321.0
21165,1201.0,1468.0,321.0
21166,1151.0,1468.0,321.0
21167,1151.0,1468.0,321.0
21168,1151.0,1468.0,321.0
21169,1151.0,1468.0,321.0
21170,1151.0,1468.0,321.0
21171,1151.0,1468.0,321.0
21172,1151.0,1468.0,321.0
21173,1151.0,1468.0,321.0
21174,1151.0,1468.0,321.0
21175,1151.0,1468.0,321.0
21176,1151.0,1468.0,321.0
21177,1151.0,1468.0,321.0
21178,1151.0,1468.0,321.0
21179,1151.0,1468.0,321.0
21180,1151.0,1468.0,321.0
21181,1151.0,1468.0,321.0
21182,1151.0,1468.0,321.0
21183,851.0,616.0,321.0
21184,111510.0,616.0,321.0
21185,1510.0,616.0,321.0
21186,1723.0,616.0,321.0
21187,1723.0,1522.0,321.0
21188,1404.0,1522.0,321.0
21189,1404.0,2282.0,321.0
21190,1317.0,2282.0,321.0
21191,1317.0,2282.0,321.0
21192,1317.0,2821.0,321.0
21193,1317.0,2821.0,321.0
21194,1072.0,2821.0,321.0
21195,1072.0,2821.0,321.0
21196,1072.0,2821.0,321.0
21197,1072.0,2821.0,321.0
21198,1072.0,2821.0,321.0
21199,1072.0,2821.0,321.0
21200,1072.0,2821.0,321.0
21201,1072.0,2821.0,321.0
21202,1072.0,2821.0,321.0
21203,1072.0,2821.0,321.0
21204,1072.0,2821.0,321.0
21205,1072.0,2114.0,321.0
21206,1072.0,2114.0,321.0
21207,1072.0,1056.0,595.0
21208,1072.0,1056.0,595.0
21209,1072.0,3454.0,524.0
21210,1072.0,3454.0,524.0
21211,1072.0,3454.0,524.0
21212,1072.0,3454.0,524.0
21213,1072.0,3454.0,524.0
21214,1072.0,3454.0,344.0
21215,2.0,3454.0,344.0
21216,10772.0,3454.0,344.0
21217,1072.0,3454.0,344.0
21218,1072.0,3454.0,344.0
21219,1072.0,3454.0,344.0
21220,1072.0,3454.0,554.0
21221,1072.0,3454.0,554.0
21222,1072.0,3454.0,554.0
21223,1072.0,3454.0,554.0
21224,1072.0,1373.0,554.0
21225,1072.0,1373.0,554.0
21226,1072.0,1373.0,554.0
21227,1072.0,1373.0,554.0
21228,1072.0,1373.0,554.0
21229,1072.0,1373.0,554.0
21230,1072.0,1373.0,554.0
21231,10.0,1373.0,554.0
21232,1072.0,1373.0,246.0
21233,1072.0,1373.0,246.0
21234,1072.0,1373.0,246.0
21235,1072.0,1373.0,246.0
21236,1072.0,1373.0,246.0
21237,1072.0,1373.0,246.0
21238,1072.0,1373.0,246.0
21239,1072.0,1373.0,723.0
21240,1072.0,1373.0,723.0
21241,1072.0,1373.0,723.0
21242,1072.0,1373.0,723.0
21243,1072.0,1373.0,723.0
21244,1072.0,1373.0,723.0
21245,1072.0,1373.0,723.0
21246,1072.0,1373.0,723.0
21247,1072.0,1373.0,723.0
21248,1072.0,1373.0,723.0
21249,1072.0,1373.0,723.0
21250,1072.0,1373.0,723.0
21251,1072.0,1373.0,723.0
21252,1072.0,1373.0,723.0
21253,1072.0,1373.0,723.0
21254,1072.0,1373.0,437.0
21255,1072.0,1373.0,437.0
21256,1072.0,1373.0,437.0
21257,1072.0,1373.0,437.0
21258,1072.0,1373.0,437.0
21259,1072.0,1373.0,437.0
21260,1072.0,1373.0,437.0
21261,1072.0,1373.0,437.0
21262,11072.0,1373.0,437.0
21263,1072.0,2415.0,437.0
21264,1072.0,2415.0,437.0
21265,1072.0,2415.0,527.0
21266,1301.0,2415.0,527.0
21267,1301.0,2415.0,527.0
21268,1301.0,2415.0,527.0
21269,1301.0,941.0,527.0
21270,1301.0,941.0,527.0
21271,1301.0,941.0,527.0
21272,1301.0,941.0,501.0
21273,1301.0,941.0,501.0
21274,1301.0,941.0,501.0
21275,1301.0,941.0,501.0
21276,1301.0,941.0,501.0
21277,1301.0,941.0,501.0
21278,1301.0,941.0,501.0
21279,1301.0,941.0,501.0
21280,1301.0,941.0,501.0
21281,1491.0,941.0,501.0
21282,1452.0,941.0,501.0
21283,1452.0,941.0,501.0
21284,1452.0,941.0,501.0
21285,1452.0,941.0,501.0
21286,1452.0,941.0,501.0
21287,1452.0,1070.0,501.0
21288,1452.0,1070.0,501.0
21289,1452.0,1070.0,501.0
21290,1452.0,1070.0,501.0
21291,1452.0,1070.0,486.0
21292,1452.0,1070.0,486.0
21293,1452.0,1070.0,486.0
21294,1452.0,1070.0,327.0
21295,1452.0,1070.0,327.0
21296,1452.0,1070.0,327.0
21297,832.0,1070.0,327.0
21298,832.0,1070.0,327.0
21299,832.0,1070.0,327.0
21300,832.0,1070.0,327.0
21301,832.0,1070.0,327.0
22966,233.0,46.0,115.0
22967,233.0,46.0,115.0
22968,233.0,53.0,115.0
22969,233.0,111.0,115.0
22970,233.0,84.0,115.0
22971,233.0,84.0,115.0
22972,233.0,84.0,115.0
22973,233.0,84.0,115.0
22974,342.0,84.0,115.0
22975,342.0,84.0,332.0
22976,342.0,84.0,332.0
22977,342.0,84.0,288.0
22978,342.0,84.0,288.0
22979,342.0,80.0,220.0
22980,342.0,65.0,220.0
22981,342.0,65.0,192.0
22982,342.0,65.0,192.0
22983,342.0,86.0,192.0
22984,342.0,98.0,192.0
22985,342.0,98.0,192.0
22986,342.0,98.0,268.0
22987,342.0,98.0,268.0
22988,342.0,98.0,181.0
22989,342.0,98.0,181.0
22990,342.0,98.0,181.0
22991,342.0,98.0,181.0
22992,172.0,44.0,181.0
22993,172.0,44.0,181.0
22994,172.0,44.0,181.0
22995,172.0,44.0,181.0
22996,172.0,44.0,181.0
22997,172.0,44.0,181.0
22998,172.0,44.0,181.0
22999,172.0,44.0,314.0
23000,172.0,44.0,202.0
23001,172.0,44.0,202.0
23002,172.0,44.0,231.0
23003,152.0,44.0,231.0
23004,120.0,44.0,231.0
23005,120.0,44.0,231.0
23006,120.0,27.0,231.0
23007,120.0,27.0,183.0
23008,120.0,27.0,183.0
23009,125.0,27.0,183.0
23010,125.0,27.0,183.0
23011,125.0,99.0,183.0
23012,125.0,67.0,183.0
23013,125.0,67.0,183.0
23014,125.0,72.0,183.0
23015,125.0,25.0,183.0
23016,125.0,25.0,183.0
23017,125.0,25.0,183.0
23018,125.0,25.0,183.0
23019,125.0,25.0,183.0
23020,125.0,50.0,183.0
23021,125.0,50.0,183.0
23022,125.0,53.0,183.0
23023,125.0,76.0,183.0
23024,125.0,76.0,183.0
23025,125.0,76.0,183.0
23026,125.0,50.0,502.0
23027,133.0,50.0,502.0
23028,133.0,50.0,502.0
23029,198.0,50.0,502.0
23030,198.0,50.0,502.0
23031,350.0,50.0,502.0
23032,350.0,50.0,502.0
23033,350.0,50.0,502.0
23034,350.0,50.0,502.0
23035,111.0,50.0,502.0
23036,111.0,50.0,502.0
23037,111.0,50.0,502.0
23038,111.0,50.0,502.0
23039,111.0,52.0,502.0
23040,111.0,52.0,502.0
23041,207.0,52.0,502.0
23042,207.0,52.0,502.0
23043,207.0,61.0,502.0
23044,207.0,61.0,502.0
23045,207.0,61.0,502.0
23046,207.0,61.0,459.0
23047,207.0,61.0,459.0
23048,135.0,61.0,220.0
23049,135.0,61.0,220.0
23050,135.0,61.0,220.0
23051,98.0,61.0,220.0
23052,98.0,70.0,220.0
23053,98.0,70.0,220.0
23054,98.0,90.0,220.0
23055,98.0,90.0,220.0
23056,98.0,49.0,220.0
23057,98.0,68.0,220.0
23058,98.0,68.0,220.0
23059,98.0,62.0,220.0
23060,98.0,62.0,220.0
23061,98.0,62.0,275.0
23062,98.0,62.0,275.0
23063,98.0,62.0,275.0
23064,98.0,62.0,275.0
23065,224.0,62.0,275.0
23066,224.0,62.0,240.0
23067,451.0,62.0,309.0
23068,451.0,62.0,309.0
23069,203.0,62.0,309.0
23070,257.0,67.0,309.0
23071,264.0,67.0,309.0
23072,291.0,67.0,309.0
23073,291.0,67.0,309.0
23074,306.0,48.0,309.0
23075,306.0,48.0,309.0
23076,306.0,48.0,309.0
23077,285.0,48.0,177.0
23078,285.0,48.0,246.0
23079,285.0,48.0,246.0
23080,285.0,94.0,246.0
23081,140.0,94.0,176.0
23082,140.0,94.0,176.0
23083,140.0,94.0,172.0
23084,140.0,94.0,269.0
23085,140.0,94.0,269.0
23086,140.0,94.0,162.0
23087,140.0,94.0,201.0
23088,140.0,94.0,201.0
23089,140.0,94.0,201.0
23090,140.0,94.0,197.0
23091,140.0,94.0,197.0
23092,140.0,94.0,197.0
23093,140.0,94.0,250.0
23094,140.0,94.0,237.0
23095,140.0,94.0,237.0
23096,140.0,94.0,237.0
23097,140.0,94.0,166.0
23098,140.0,94.0,166.0
23099,140.0,94.0,203.0
23100,140.0,94.0,136.0
23101,140.0,94.0,280.0
23102,140.0,94.0,281.0
23103,140.0,94.0,281.0
23104,140.0,94.0,262.0
23105,140.0,94.0,113.0
23106,140.0,94.0,401.0
23107,140.0,94.0,401.0
23108,140.0,27.0,157.0
23109,140.0,27.0,157.0
23110,140.0,23.0,157.0
23111,140.0,23.0,138.0
23112,140.0,42.0,138.0
23113,140.0,42.0,241.0
23114,140.0,42.0,76.0
23115,140.0,42.0,76.0
23116,140.0,42.0,76.0
23117,140.0,53.0,118.0
23118,187.0,53.0,118.0
24641,393.0,65.0,297.0
24642,393.0,65.0,297.0
24643,426.0,65.0,297.0
24644,426.0,65.0,297.0
24645,154.0,65.0,297.0
24646,154.0,90.0,297.0
24647,154.0,90.0,297.0
24648,154.0,144.0,297.0
24649,175.0,144.0,297.0
24650,225.0,144.0,297.0
24651,225.0,48.0,297.0
24652,306.0,55.0,297.0
24653,306.0,55.0,244.0
24654,306.0,55.0,244.0
24655,306.0,55.0,195.0
24656,306.0,55.0,195.0
24657,306.0,55.0,195.0
24658,251.0,55.0,195.0
24659,251.0,55.0,195.0
24660,251.0,55.0,195.0
24661,251.0,55.0,195.0
24662,189.0,55.0,195.0
24663,189.0,51.0,352.0
24664,189.0,51.0,352.0
24665,189.0,51.0,352.0
24666,189.0,51.0,352.0
24667,189.0,51.0,142.0
24668,249.0,51.0,142.0
24669,249.0,51.0,225.0
24670,249.0,51.0,225.0
24671,249.0,51.0,158.0
24672,249.0,51.0,129.0
24673,310.0,51.0,129.0
24674,310.0,126.0,129.0
24675,310.0,126.0,129.0
24676,310.0,126.0,129.0
24677,310.0,59.0,129.0
24678,310.0,68.0,129.0
24679,310.0,68.0,129.0
24680,207.0,68.0,129.0
24681,105.0,68.0,129.0
24682,105.0,68.0,443.0
24683,105.0,68.0,443.0
24684,244.0,68.0,443.0
24685,244.0,68.0,443.0
24686,244.0,68.0,443.0
24687,205.0,68.0,443.0
24688,245.0,68.0,443.0
24689,225.0,83.0,443.0
24690,354.0,83.0,443.0
24691,354.0,83.0,307.0
24692,354.0,83.0,307.0
24693,354.0,83.0,133.0
24694,342.0,83.0,133.0
24695,342.0,83.0,133.0
24696,342.0,53.0,133.0
24697,342.0,53.0,279.0
24698,342.0,53.0,155.0
24699,342.0,96.0,155.0
24700,342.0,96.0,155.0
24701,342.0,96.0,155.0
24702,342.0,96.0,155.0
24703,342.0,96.0,155.0
24704,342.0,96.0,155.0
24705,342.0,96.0,252.0
24706,342.0,96.0,252.0
24707,328.0,96.0,304.0
24708,328.0,77.0,304.0
24709,192.0,77.0,304.0
24710,284.0,77.0,304.0
24711,193.0,77.0,304.0
24712,193.0,77.0,304.0
24713,193.0,77.0,245.0
24714,193.0,77.0,245.0
24715,193.0,77.0,245.0
24716,322.0,77.0,245.0
24717,322.0,77.0,245.0
24718,322.0,91.0,245.0
24719,322.0,59.0,245.0
24720,312.0,59.0,245.0
24721,312.0,59.0,245.0
24722,120.0,59.0,245.0
24723,220.0,59.0,162.0
24724,220.0,59.0,162.0
24725,220.0,59.0,200.0
24726,220.0,59.0,200.0
24727,182.0,59.0,375.0
24728,182.0,139.0,375.0
24729,182.0,111.0,375.0
24730,182.0,111.0,375.0
24731,182.0,111.0,375.0
24732,182.0,111.0,375.0
24733,182.0,111.0,375.0
24734,182.0,111.0,396.0
24735,228.0,111.0,396.0
24736,331.0,111.0,396.0
24737,263.0,111.0,291.0
24738,333.0,111.0,179.0
24739,333.0,111.0,179.0
24740,333.0,111.0,179.0
24741,333.0,111.0,179.0
24742,280.0,111.0,136.0
24743,280.0,111.0,136.0
24744,280.0,90.0,394.0
24745,280.0,90.0,394.0
24746,280.0,122.0,394.0
24747,280.0,122.0,394.0
24748,280.0,122.0,396.0
24749,280.0,122.0,396.0
24750,280.0,122.0,396.0
24751,280.0,122.0,396.0
24752,377.0,122.0,396.0
24753,377.0,122.0,396.0
24754,377.0,122.0,141.0
24755,377.0,102.0,141.0
24756,377.0,102.0,188.0
24757,228.0,102.0,188.0
24758,228.0,102.0,188.0
24759,228.0,102.0,188.0
24760,228.0,102.0,274.0
24761,228.0,40.0,274.0
24762,228.0,40.0,274.0
24763,228.0,44.0,274.0
24764,228.0,44.0,274.0
24765,228.0,72.0,234.0
24766,228.0,72.0,234.0
24767,228.0,72.0,390.0
24768,228.0,72.0,390.0
24769,228.0,72.0,352.0
24770,228.0,72.0,266.0
24771,228.0,72.0,525.0
24772,228.0,72.0,525.0
24773,228.0,72.0,206.0
24774,228.0,83.0,206.0
24775,228.0,83.0,139.0
24776,228.0,67.0,139.0
24777,165.0,67.0,139.0
24778,165.0,90.0,139.0
24779,165.0,90.0,139.0
24780,165.0,90.0,287.0
24781,165.0,90.0,287.0
24782,165.0,90.0,184.0
24783,165.0,90.0,184.0
24784,165.0,90.0,513.0
24785,104.0,105.0,109.0
24786,104.0,105.0,338.0
24787,104.0,105.0,274.0
24788,142.0,105.0,168.0
24789,142.0,105.0,152.0
24790,142.0,105.0,152.0
24791,224.0,70.0,152.0
24792,224.0,70.0,152.0
27301,1279.0,2622.0,656.0
27302,1279.0,2622.0,656.0
27303,1279.0,2622.0,656.0
27304,1279.0,2622.0,656.0
27305,2110.0,2622.0,656.0
27306,2110.0,2622.0,656.0
27307,1892.0,2622.0,656.0
27308,1892.0,2622.0,656.0
27309,1892.0,2622.0,656.0
27310,1892.0,2622.0,656.0
27311,1892.0,2622.0,656.0
27312,1892.0,2622.0,656.0
27313,1892.0,2622.0,656.0
27314,1892.0,2622.0,656.0
27315,1892.0,2622.0,656.0
27316,1892.0,2622.0,656.0
27317,1811.0,2622.0,656.0
27318,1811.0,2622.0,656.0
27319,1599.0,2622.0,656.0
27320,1599.0,2622.0,656.0
27321,1599.0,2622.0,656.0
27322,1599.0,2622.0,656.0
27323,1664.0,2622.0,656.0
27324,917.0,2622.0,656.0
27325,917.0,2622.0,656.0
27326,917.0,2622.0,656.0
27327,980.0,2622.0,656.0
27328,980.0,2622.0,656.0
27329,1381.0,2622.0,656.0
27330,998.0,2622.0,656.0
27331,958.0,2622.0,656.0
27332,1529.0,2622.0,656.0
27333,1529.0,2622.0,656.0
27334,1529.0,2622.0,656.0
27335,1529.0,2622.0,656.0
27336,1817.0,2622.0,656.0
27337,1817.0,2622.0,656.0
27338,1817.0,2622.0,656.0
27339,1337.0,2622.0,656.0
27340,1040.0,2622.0,656.0
27341,1040.0,2622.0,656.0
27342,1988.0,2622.0,656.0
27343,1988.0,2622.0,656.0
27344,1988.0,2622.0,656.0
27345,1988.0,2622.0,656.0
27346,1988.0,2622.0,656.0
27347,1988.0,2622.0,1444.0
27348,1988.0,2622.0,1444.0
27349,1988.0,2622.0,1444.0
27350,1988.0,2622.0,1444.0
27351,1988.0,2622.0,1444.0
27352,1988.0,2622.0,1444.0
27353,816.0,2622.0,1444.0
27354,816.0,2622.0,1444.0
27355,2084.0,2622.0,1444.0
27356,2084.0,2622.0,1444.0
27357,2084.0,2622.0,1444.0
27358,2084.0,2622.0,1444.0
27359,1979.0,2622.0,1444.0
27360,1979.0,2622.0,1444.0
27361,1979.0,2622.0,1444.0
27362,1979.0,2622.0,1444.0
27363,1979.0,2622.0,1444.0
27364,1979.0,2622.0,1444.0
27365,1979.0,2622.0,1444.0
27366,1979.0,2622.0,1444.0
27367,1979.0,2622.0,1444.0
27368,1979.0,2622.0,1444.0
27369,1979.0,2622.0,1444.0
27370,1551.0,2622.0,1444.0
27371,1551.0,2622.0,1444.0
27372,1551.0,2622.0,1444.0
27373,1551.0,2622.0,1444.0
27374,1551.0,2622.0,1444.0
27375,895.0,1444.0,1317.0
27376,895.0,1444.0,1317.0
27377,895.0,1444.0,1317.0
27378,895.0,1444.0,1317.0
27379,1126.0,1444.0,1317.0
27380,1126.0,1444.0,1317.0
27381,1126.0,1444.0,1317.0
27382,1126.0,1444.0,1317.0
27383,1126.0,1444.0,1317.0
27384,1126.0,1444.0,1317.0
27385,1126.0,1444.0,1317.0
27386,1126.0,1444.0,1317.0
27387,1278.0,1444.0,1317.0
27388,1278.0,1444.0,1317.0
27389,1591.0,1444.0,1317.0
27390,1591.0,1444.0,1317.0
27391,678.0,1444.0,1317.0
27392,1091.0,1444.0,1317.0
27393,1091.0,1444.0,1317.0
27394,1091.0,1444.0,1317.0
27395,1091.0,1444.0,1317.0
27396,1091.0,1444.0,1317.0
27397,1853.0,1444.0,1317.0
27398,1853.0,1444.0,1317.0
27399,1853.0,1444.0,1317.0
27400,1853.0,1444.0,1317.0
27401,1853.0,1444.0,1317.0
27402,1853.0,1444.0,1317.0
27403,1853.0,1444.0,1317.0
27404,1853.0,1444.0,1317.0
27405,1853.0,1444.0,1317.0
27406,1180.0,1444.0,1317.0
27407,1180.0,1444.0,1317.0
27408,1180.0,1444.0,1317.0
27409,1201.0,1444.0,1317.0
27410,1201.0,1444.0,1317.0
27411,1201.0,1444.0,1317.0
27412,1201.0,1444.0,1317.0
27413,1201.0,1444.0,1317.0
27414,1201.0,1444.0,1317.0
27415,1201.0,1444.0,1317.0
27416,1343.0,1444.0,1317.0
27417,1343.0,1444.0,1317.0
27418,1207.0,1444.0,1317.0
27419,1207.0,1444.0,1317.0
27420,1207.0,1444.0,1317.0
27421,1207.0,1444.0,1317.0
27422,1207.0,1444.0,1317.0
27423,1207.0,1444.0,1317.0
27424,1207.0,1444.0,1317.0
27425,1135.0,1444.0,1317.0
27426,1135.0,1444.0,1317.0
27427,1466.0,1444.0,1317.0
29592,137.0,611.0,892.0
29593,60.0,611.0,892.0
29594,60.0,611.0,892.0
29595,60.0,611.0,892.0
29596,134.0,611.0,892.0
29597,134.0,611.0,892.0
29598,134.0,611.0,892.0
29599,134.0,611.0,892.0
29600,134.0,611.0,892.0
29601,134.0,434.0,892.0
29602,134.0,423.0,892.0
29603,134.0,423.0,892.0
29604,134.0,423.0,892.0
29605,134.0,423.0,892.0
29606,270.0,423.0,892.0
29607,270.0,423.0,892.0
29608,103.0,423.0,892.0
29609,103.0,634.0,892.0
29610,103.0,634.0,892.0
29611,82.0,634.0,892.0
29612,82.0,634.0,1381.0
29613,179.0,634.0,1381.0
29614,179.0,921.0,1192.0
29615,179.0,822.0,849.0
29616,179.0,822.0,671.0
29617,179.0,822.0,671.0
29618,179.0,822.0,671.0
29619,179.0,822.0,671.0
29620,179.0,822.0,671.0
29621,179.0,822.0,1031.0
29622,179.0,822.0,1105.0
29623,179.0,822.0,1105.0
29624,179.0,822.0,1105.0
29625,179.0,822.0,1105.0
29626,188.0,822.0,802.0
29627,188.0,822.0,802.0
29628,188.0,555.0,802.0
29629,188.0,555.0,802.0
29630,188.0,555.0,802.0
29631,188.0,555.0,666.0
29632,188.0,555.0,465.0
29633,188.0,789.0,465.0
29634,188.0,789.0,465.0
29635,188.0,789.0,465.0
29636,188.0,789.0,465.0
29637,188.0,789.0,465.0
29638,168.0,789.0,465.0
29639,155.0,789.0,465.0
29640,155.0,789.0,465.0
29641,155.0,789.0,465.0
29642,155.0,789.0,465.0
29643,155.0,789.0,2085.0
29644,155.0,789.0,2085.0
29645,155.0,789.0,2085.0
29646,155.0,789.0,1224.0
29647,155.0,789.0,1224.0
29648,155.0,789.0,724.0
29649,155.0,741.0,724.0
29650,155.0,1404.0,724.0
29651,257.0,1404.0,724.0
29652,257.0,1112.0,724.0
29653,257.0,1112.0,724.0
29654,257.0,917.0,724.0
29655,257.0,416.0,949.0
29656,257.0,980.0,949.0
29657,257.0,980.0,949.0
29658,257.0,980.0,949.0
29659,257.0,980.0,949.0
29660,257.0,980.0,949.0
29661,257.0,980.0,949.0
29662,257.0,980.0,949.0
29663,257.0,1019.0,2339.0
29664,257.0,1019.0,2339.0
29665,257.0,1019.0,1078.0
29666,257.0,1019.0,1078.0
29667,257.0,1019.0,1078.0
29668,257.0,1019.0,1078.0
29669,257.0,1019.0,1078.0
29670,257.0,1019.0,760.0
29671,257.0,1019.0,1396.0
29672,257.0,1019.0,1396.0
29673,257.0,1019.0,1396.0
29674,257.0,1019.0,1396.0
29675,257.0,1019.0,1396.0
29676,257.0,1019.0,1396.0
29677,225.0,1019.0,1396.0
29678,292.0,1019.0,1396.0
29679,292.0,1019.0,1396.0
29680,292.0,1019.0,1396.0
29681,292.0,1019.0,1396.0
29682,292.0,1019.0,1396.0
29683,381.0,1019.0,1396.0
29684,381.0,1019.0,1396.0
29685,335.0,1019.0,1396.0
29686,335.0,1019.0,1396.0
29687,626.0,773.0,1396.0
29688,626.0,773.0,1396.0
29689,266.0,773.0,1248.0
29690,451.0,773.0,1248.0
29691,451.0,773.0,1248.0
29692,1073.0,773.0,1248.0
29693,103.0,773.0,1248.0
29694,103.0,773.0,1248.0
29695,220.0,773.0,1248.0
29696,220.0,773.0,1248.0
29697,659.0,773.0,1248.0
29698,659.0,773.0,1248.0
29699,659.0,773.0,1248.0
29700,659.0,773.0,1248.0
29701,262.0,773.0,1248.0
29702,262.0,137.0,1248.0
29703,262.0,137.0,1248.0
29704,262.0,1121.0,1248.0
29705,278.0,1121.0,1248.0
29706,278.0,1121.0,1248.0
29707,278.0,1121.0,1248.0
29708,278.0,1121.0,1248.0
29709,278.0,1121.0,1248.0
29710,278.0,1121.0,1248.0
29711,278.0,1121.0,1248.0
29712,278.0,1121.0,1248.0
29713,278.0,1121.0,1248.0
29714,278.0,1121.0,1248.0
29715,278.0,1121.0,1248.0
29716,278.0,1121.0,1248.0
29717,278.0,1121.0,1248.0
29718,278.0,1907.0,1248.0
29719,278.0,714.0,606.0
29720,278.0,714.0,606.0
29721,278.0,714.0,606.0
29722,217.0,714.0,606.0
29723,312.0,714.0,606.0
29724,312.0,714.0,1148.0
29725,312.0,714.0,1148.0
29726,312.0,714.0,619.0
29727,312.0,714.0,966.0
29728,312.0,714.0,966.0
29729,312.0,714.0,966.0
29730,312.0,714.0,1298.0
29731,312.0,714.0,811.0
29732,312.0,714.0,860.0
29733,312.0,714.0,860.0
29734,312.0,714.0,860.0
29735,312.0,714.0,860.0
29736,312.0,714.0,812.0
29737,312.0,714.0,812.0
29738,312.0,714.0,1191.0
29739,312.0,714.0,1191.0
29740,312.0,1244.0,1191.0
29741,151.0,1244.0,1191.0
29742,151.0,854.0,1191.0
29743,151.0,854.0,1191.0
29744,151.0,659.0,1191.0
31368,169.0,801.0,816.0
31369,169.0,801.0,816.0
31370,169.0,801.0,816.0
31371,327.0,801.0,816.0
31372,327.0,801.0,816.0
31373,327.0,801.0,816.0
31374,327.0,549.0,816.0
31375,327.0,549.0,816.0
31376,327.0,549.0,816.0
31377,327.0,549.0,816.0
31378,327.0,549.0,816.0
31379,285.0,549.0,816.0
31380,285.0,549.0,816.0
31381,285.0,549.0,816.0
31382,285.0,1254.0,816.0
31383,182.0,1254.0,816.0
32415,107.0,987.0,177.0
32416,107.0,987.0,177.0
32417,107.0,987.0,364.0
32418,264.0,987.0,364.0
32419,264.0,987.0,364.0
32420,264.0,987.0,364.0
32421,330.0,987.0,364.0
32422,330.0,987.0,364.0
32423,219.0,467.0,364.0
32424,219.0,503.0,364.0
32425,219.0,503.0,364.0
32426,225.0,503.0,364.0
32427,298.0,503.0,364.0
32428,298.0,503.0,364.0
32429,298.0,503.0,364.0
32430,298.0,503.0,364.0
32431,298.0,503.0,364.0
32432,298.0,503.0,364.0
32433,8.0,503.0,364.0
32434,298.0,503.0,364.0
32435,298.0,503.0,364.0
32436,298.0,503.0,364.0
32437,298.0,503.0,364.0
32438,298.0,503.0,364.0
32439,298.0,564.0,364.0
32440,263.0,564.0,364.0
32441,263.0,564.0,364.0
32442,263.0,564.0,364.0
32443,29200.0,564.0,364.0
32444,263.0,564.0,154.0
32445,210.0,564.0,154.0
32446,197.0,564.0,154.0
32447,59.0,564.0,154.0
32448,313.0,564.0,154.0
32449,191.0,564.0,154.0
32450,191.0,564.0,154.0
32451,191.0,564.0,154.0
32452,328.0,564.0,154.0
32453,246.0,564.0,154.0
32454,254.0,367.0,154.0
32455,254.0,367.0,277.0
32456,254.0,367.0,277.0
32457,254.0,367.0,277.0
32458,254.0,602.0,277.0
32459,254.0,602.0,277.0
32460,254.0,602.0,277.0
32461,254.0,754.0,277.0
32462,254.0,754.0,277.0
32463,254.0,754.0,277.0
32464,254.0,754.0,277.0
32465,254.0,754.0,277.0
32466,254.0,404.0,277.0
32467,254.0,404.0,277.0
32468,24.0,404.0,277.0
32469,2554.0,739.0,277.0
32470,254.0,739.0,277.0
32471,254.0,568.0,277.0
32472,254.0,568.0,277.0
32473,254.0,540.0,277.0
32474,20.0,627.0,277.0
32475,254.0,690.0,277.0
32476,561.0,690.0,277.0
32477,561.0,690.0,277.0
32478,561.0,690.0,209.0
32479,561.0,690.0,209.0
32480,404.0,690.0,209.0
32481,404.0,690.0,209.0
32482,404.0,690.0,209.0
32483,404.0,690.0,209.0
32484,404.0,690.0,209.0
32485,404.0,690.0,222.0
32486,404.0,690.0,222.0
32487,404.0,690.0,222.0
32488,404.0,690.0,222.0
32489,478.0,411.0,222.0
32490,478.0,411.0,970.0
32491,260.0,411.0,970.0
32492,260.0,411.0,341.0
32493,260.0,411.0,341.0
32494,260.0,411.0,341.0
32495,260.0,411.0,341.0
32496,260.0,411.0,341.0
32497,260.0,543.0,341.0
32498,260.0,543.0,341.0
32499,260.0,543.0,341.0
32500,260.0,543.0,341.0
32501,569.0,543.0,341.0
32502,569.0,543.0,341.0
32503,244.0,543.0,341.0
32504,244.0,543.0,341.0
32505,244.0,543.0,341.0
32506,244.0,543.0,341.0
32507,40.0,543.0,341.0
32508,244.0,543.0,270.0
32509,244.0,543.0,270.0
32510,244.0,543.0,270.0
32511,244.0,543.0,270.0
32512,244.0,543.0,270.0
32513,244.0,543.0,270.0
32514,244.0,543.0,270.0
32515,244.0,543.0,270.0
32516,2244.0,538.0,270.0
32517,244.0,538.0,270.0
32518,244.0,538.0,270.0
32519,244.0,538.0,270.0
32520,170.0,538.0,270.0
32521,170.0,538.0,270.0
32522,234.0,538.0,270.0
32523,234.0,538.0,270.0
32524,257.0,538.0,270.0
32525,257.0,538.0,270.0
32526,257.0,538.0,270.0
32527,257.0,538.0,290.0
32528,257.0,538.0,290.0
34168,771.0,426.0,400.0
34169,771.0,426.0,400.0
34170,771.0,426.0,400.0
34171,771.0,426.0,400.0
34172,771.0,420.0,400.0
34173,508.0,420.0,400.0
34174,508.0,420.0,400.0
34175,508.0,420.0,400.0
34176,508.0,310.0,400.0
34177,508.0,310.0,400.0
34178,508.0,606.0,400.0
34179,508.0,606.0,400.0
34180,508.0,606.0,400.0
34181,508.0,606.0,400.0
34182,508.0,606.0,400.0
34183,508.0,606.0,400.0
34184,463.0,606.0,400.0
34185,463.0,606.0,400.0
34186,463.0,606.0,256.0
34187,463.0,606.0,256.0
34188,750.0,606.0,256.0
34189,750.0,606.0,256.0
34190,750.0,606.0,256.0
34191,750.0,345.0,256.0
34192,750.0,345.0,256.0
34193,750.0,345.0,361.0
34194,750.0,345.0,361.0
34195,750.0,345.0,361.0
34196,750.0,605.0,305.0
34197,750.0,605.0,305.0
34198,750.0,605.0,305.0
34199,750.0,605.0,305.0
34200,750.0,605.0,305.0
34201,750.0,605.0,305.0
34202,750.0,605.0,305.0
34203,750.0,520.0,305.0
34204,750.0,520.0,362.0
34205,750.0,520.0,362.0
34206,750.0,520.0,237.0
34207,750.0,520.0,237.0
34208,750.0,520.0,773.0
34209,750.0,520.0,773.0
34210,750.0,520.0,1347.0
34211,750.0,520.0,1347.0
34212,750.0,520.0,1347.0
34213,750.0,520.0,725.0
34214,750.0,520.0,725.0
34215,750.0,520.0,725.0
34216,750.0,520.0,725.0
34217,195.0,520.0,725.0
34218,195.0,515.0,725.0
34219,195.0,515.0,276.0
34220,195.0,515.0,276.0
34221,195.0,515.0,382.0
34222,195.0,515.0,309.0
34223,195.0,515.0,309.0
34224,195.0,515.0,309.0
34225,195.0,515.0,309.0
34226,268.0,515.0,309.0
34227,268.0,515.0,309.0
34228,268.0,515.0,309.0
34229,233.0,515.0,289.0
34230,233.0,515.0,289.0
34231,233.0,515.0,289.0
34232,233.0,515.0,289.0
34233,233.0,295.0,289.0
34234,233.0,295.0,289.0
34235,233.0,295.0,289.0
34236,233.0,295.0,289.0
34237,233.0,295.0,289.0
34238,233.0,295.0,356.0
34239,233.0,295.0,356.0
34240,23233.0,295.0,356.0
34241,233.0,295.0,356.0
34242,233.0,295.0,356.0
34243,233.0,295.0,122.0
34244,233.0,295.0,122.0
34245,33.0,295.0,122.0
34246,2233.0,295.0,122.0
34247,405.0,295.0,122.0
34248,405.0,295.0,122.0
34249,275.0,295.0,122.0
34250,275.0,295.0,122.0
34251,275.0,295.0,122.0
34252,275.0,295.0,122.0
34253,275.0,295.0,316.0
34254,275.0,295.0,316.0
34255,275.0,617.0,316.0
34256,275.0,617.0,316.0
34257,5.0,589.0,551.0
34258,275.0,589.0,551.0
34259,275.0,589.0,250.0
34260,275.0,589.0,250.0
34261,275.0,589.0,250.0
34262,275.0,589.0,250.0
34263,275.0,589.0,250.0
34264,275.0,589.0,250.0
34265,275.0,589.0,250.0
34266,275.0,589.0,250.0
34267,275.0,589.0,250.0
34268,2275.0,589.0,439.0
34269,275.0,589.0,439.0
34270,275.0,589.0,439.0
34271,275.0,589.0,173.0
34272,275.0,589.0,173.0
34273,275.0,589.0,173.0
34274,275.0,589.0,173.0
34275,275.0,589.0,173.0
34276,275.0,589.0,131.0
34277,275.0,589.0,131.0
34278,275.0,589.0,131.0
34279,275.0,589.0,678.0
34280,275.0,589.0,221.0
34281,275.0,589.0,221.0
34282,275.0,170.0,221.0
34283,275.0,170.0,221.0
34284,275.0,170.0,221.0
34285,275.0,170.0,221.0
34286,275.0,408.0,221.0
34287,275.0,408.0,221.0
34288,275.0,108.0,221.0
34289,275.0,267.0,221.0
34290,275.0,267.0,221.0
34291,275.0,267.0,411.0
34292,275.0,267.0,411.0
34293,275.0,372.0,411.0
34294,275.0,454.0,411.0
34295,275.0,483.0,411.0
34296,275.0,483.0,411.0
34297,275.0,483.0,411.0
34298,275.0,483.0,411.0
34299,275.0,483.0,411.0
34300,275.0,483.0,411.0
34301,275.0,533.0,411.0
34302,275.0,533.0,411.0
34303,275.0,533.0,411.0
34304,275.0,533.0,411.0
34305,275.0,533.0,411.0
35966,506.0,1117.0,1327.0
35967,506.0,1117.0,1327.0
35968,488.0,1117.0,1327.0
35969,488.0,1117.0,1327.0
35970,488.0,1117.0,1327.0
35971,488.0,1117.0,1327.0
35972,488.0,1117.0,1327.0
35973,488.0,1117.0,1327.0
35974,488.0,1117.0,1327.0
35975,488.0,1117.0,1327.0
35976,488.0,1117.0,2832.0
35977,488.0,1117.0,2832.0
35978,488.0,1117.0,2832.0
35979,488.0,1117.0,2832.0
35980,488.0,1347.0,2832.0
35981,488.0,1347.0,2832.0
35982,488.0,1347.0,2832.0
35983,488.0,1347.0,2832.0
35984,488.0,1347.0,2832.0
35985,488.0,1347.0,2880.0
35986,488.0,1347.0,2880.0
35987,488.0,1347.0,2880.0
35988,488.0,1347.0,2880.0
35989,488.0,1347.0,2880.0
35990,488.0,1347.0,2880.0
35991,716.0,1347.0,2880.0
35992,390.0,1347.0,2880.0
35993,390.0,1347.0,2880.0
35994,390.0,1347.0,2880.0
35995,321.0,1347.0,2880.0
35996,521.0,1347.0,2880.0
35997,3321.0,1347.0,2880.0
35998,321.0,1347.0,2880.0
35999,746.0,1347.0,1236.0
36000,746.0,1347.0,1236.0
36001,746.0,1347.0,1236.0
36002,746.0,1014.0,1236.0
36003,746.0,1014.0,1236.0
36004,746.0,1014.0,1236.0
36005,746.0,1014.0,1236.0
36006,746.0,1014.0,1236.0
36007,746.0,1014.0,1236.0
36008,746.0,1014.0,1236.0
36009,169.0,1014.0,1236.0
36010,169.0,1014.0,1236.0
36011,169.0,1014.0,1236.0
36012,169.0,2257.0,1236.0
36013,169.0,1277.0,1236.0
36014,169.0,1381.0,2087.0
36015,169.0,1381.0,2087.0
36016,169.0,1381.0,2087.0
36017,169.0,1381.0,2087.0
36018,169.0,1381.0,2087.0
36019,169.0,1381.0,2087.0
36020,169.0,2002.0,2087.0
36021,169.0,2005.0,2087.0
36022,169.0,489.0,2087.0
36023,169.0,489.0,2087.0
36024,169.0,998.0,2087.0
36025,169.0,998.0,2087.0
36026,169.0,1240.0,2087.0
36027,169.0,1240.0,2087.0
36028,169.0,1240.0,2087.0
36029,169.0,1240.0,2087.0
36030,169.0,928.0,2087.0
36031,169.0,1938.0,2087.0
36032,169.0,1539.0,2087.0
36033,169.0,1539.0,2087.0
36034,624.0,1539.0,2087.0
36035,624.0,1539.0,2087.0
36036,100.0,2387.0,2087.0
36037,215.0,2387.0,2087.0
36038,215.0,2387.0,2087.0
36039,215.0,2387.0,2087.0
36040,215.0,2387.0,2087.0
36041,215.0,2387.0,2087.0
36042,215.0,2387.0,2087.0
36043,215.0,2387.0,2087.0
36044,215.0,2387.0,2087.0
36045,416.0,2387.0,2087.0
36046,416.0,2387.0,1105.0
36047,416.0,2387.0,1304.0
36048,416.0,2387.0,2838.0
36049,416.0,2387.0,2838.0
36050,416.0,2387.0,2838.0
36051,416.0,2149.0,1484.0
36052,416.0,2149.0,1484.0
36053,416.0,2149.0,1484.0
36054,416.0,2149.0,1484.0
36055,399.0,2149.0,1484.0
36056,399.0,2149.0,1484.0
36057,399.0,2149.0,1484.0
36058,399.0,2149.0,1484.0
36059,380.0,2149.0,1762.0
36060,380.0,2149.0,1762.0
36061,380.0,2513.0,3381.0
36062,380.0,2513.0,3381.0
36063,380.0,2513.0,1828.0
36064,380.0,2513.0,1828.0
36065,380.0,2513.0,1828.0
36066,380.0,2513.0,1828.0
36067,380.0,2513.0,1828.0
36068,1138.0,2513.0,1828.0
36069,1138.0,2513.0,1828.0
36070,1138.0,2534.0,1828.0
36071,1138.0,2534.0,1828.0
36072,1138.0,2534.0,1828.0
36073,1138.0,2534.0,1828.0
36074,1138.0,2681.0,1828.0
36075,1138.0,2681.0,1828.0
36076,1138.0,1742.0,1828.0
36077,1138.0,1456.0,1828.0
36078,1138.0,1286.0,1828.0
36079,1138.0,1928.0,1828.0
36080,1138.0,1928.0,3241.0
36081,1138.0,1928.0,3241.0
36082,1138.0,1928.0,3241.0
36083,1138.0,2208.0,3241.0
36084,1138.0,1896.0,3241.0
36085,1138.0,1896.0,3241.0
36086,1138.0,1328.0,3241.0
36087,1138.0,1328.0,3241.0
36088,477.0,2324.0,3241.0
36089,477.0,2324.0,3241.0
36090,477.0,2324.0,3241.0
36091,867.0,2324.0,3241.0
36092,867.0,2324.0,3241.0
36093,867.0,2324.0,3241.0
36094,867.0,2324.0,3241.0
36095,867.0,1542.0,3241.0
36096,867.0,1542.0,3241.0
36097,867.0,1542.0,2546.0
36098,867.0,1542.0,2546.0
36099,867.0,1542.0,1728.0
36100,867.0,1542.0,1728.0
36101,867.0,1542.0,1728.0
36102,867.0,1542.0,1728.0
37878,624.0,1341.0,2563.0
37879,624.0,1341.0,2563.0
37880,624.0,1341.0,2563.0
37881,624.0,1341.0,2563.0
37882,624.0,1341.0,2563.0
37883,709.0,1341.0,2563.0
37884,378.0,1341.0,2563.0
37885,378.0,1341.0,631.0
37886,378.0,1341.0,631.0
37887,378.0,1341.0,631.0
37888,378.0,1341.0,631.0
37889,378.0,1341.0,631.0
37890,378.0,1341.0,2625.0
37891,378.0,1341.0,2625.0
37892,378.0,1341.0,2625.0
37893,295.0,1341.0,2625.0
37894,700.0,1341.0,2625.0
37895,700.0,1341.0,2625.0
37896,497.0,1341.0,2625.0
37897,213.0,1341.0,2625.0
37898,213.0,1341.0,2625.0
37899,213.0,1341.0,2625.0
37900,213.0,1341.0,2625.0
37901,213.0,1341.0,2837.0
37902,213.0,1341.0,2837.0
37903,213.0,1341.0,2837.0
37904,213.0,1341.0,2837.0
37905,213.0,2340.0,2837.0
37906,213.0,2340.0,2837.0
37907,561.0,2340.0,2837.0
37908,561.0,2340.0,2837.0
37909,724.0,2340.0,2837.0
37910,724.0,2340.0,2837.0
37911,724.0,2340.0,2837.0
37912,724.0,2340.0,2837.0
37913,724.0,2340.0,2837.0
37914,724.0,2340.0,2837.0
37915,724.0,2340.0,2837.0
37916,724.0,2340.0,2837.0
37917,669.0,2340.0,2584.0
37918,669.0,1067.0,2584.0
37919,669.0,1067.0,2584.0
37920,392.0,775.0,2584.0
37921,392.0,775.0,2584.0
37922,392.0,775.0,2584.0
37923,392.0,1599.0,2584.0
37924,392.0,1599.0,2584.0
37925,2.0,1599.0,2584.0
37926,70909.0,1599.0,2584.0
37927,709.0,1599.0,3614.0
37928,709.0,1599.0,3614.0
37929,709.0,2078.0,3614.0
37930,690.0,2078.0,3614.0
37931,690.0,2078.0,3614.0
37932,690.0,2078.0,3614.0
37933,690.0,558.0,3614.0
37934,906.0,558.0,3614.0
37935,906.0,558.0,3614.0
37936,906.0,558.0,3614.0
37937,906.0,558.0,3614.0
37938,401.0,558.0,3614.0
37939,976.0,558.0,3614.0
37940,976.0,558.0,3614.0
37941,976.0,558.0,3614.0
37942,976.0,558.0,3614.0
37943,976.0,2263.0,3614.0
37944,976.0,2263.0,3614.0
37945,976.0,1730.0,3614.0
37946,976.0,1730.0,3614.0
37947,7.0,888.0,3614.0
37948,976.0,858.0,3614.0
37949,976.0,858.0,3614.0
37950,976.0,858.0,3614.0
37951,976.0,1480.0,3614.0
37952,976.0,1480.0,3614.0
37953,976.0,1480.0,1640.0
37954,976.0,1480.0,1640.0
37955,976.0,2166.0,1640.0
37956,976.0,2166.0,1640.0
37957,976.0,1967.0,1640.0
37958,976.0,1967.0,1640.0
37959,976.0,1033.0,1640.0
37960,976.0,1515.0,1640.0
37961,976.0,1515.0,1640.0
37962,976.0,1043.0,1640.0
37963,976.0,1043.0,1640.0
37964,822.0,1043.0,1912.0
37965,822.0,1043.0,1912.0
37966,822.0,1043.0,1912.0
37967,822.0,1043.0,1912.0
37968,822.0,1043.0,1912.0
37969,822.0,1043.0,1912.0
37970,822.0,1043.0,1919.0
37971,735.0,1043.0,1919.0
37972,729.0,1043.0,1919.0
37973,729.0,1043.0,1919.0
37974,710.0,1043.0,868.0
37975,710.0,1043.0,868.0
37976,710.0,1491.0,868.0
37977,710.0,1491.0,868.0
37978,710.0,1491.0,868.0
37979,582.0,1491.0,868.0
37980,582.0,1491.0,868.0
37981,582.0,2787.0,868.0
37982,582.0,2787.0,868.0
37983,582.0,2787.0,868.0
37984,582.0,2787.0,868.0
37985,582.0,1040.0,868.0
37986,582.0,1040.0,868.0
37987,582.0,1040.0,868.0
37988,582.0,1040.0,868.0
37989,1092.0,1040.0,868.0
37990,1092.0,1040.0,1788.0
37991,1092.0,1040.0,1788.0
37992,1092.0,1040.0,1788.0
37993,1092.0,1040.0,1788.0
37994,1092.0,1203.0,3118.0
37995,1092.0,1203.0,3118.0
37996,661.0,1203.0,3227.0
37997,661.0,1152.0,3227.0
37998,661.0,1481.0,3227.0
37999,661.0,1481.0,3227.0
38000,661.0,1481.0,3227.0
38001,661.0,1075.0,3227.0
38002,661.0,1075.0,3227.0
38003,661.0,1075.0,3227.0
38004,661.0,1075.0,3227.0
38005,661.0,1376.0,3227.0
38006,661.0,2027.0,3227.0
38007,661.0,2027.0,3227.0
38008,661.0,2027.0,3227.0
38009,661.0,2027.0,3227.0
38010,661.0,2027.0,3227.0
38011,661.0,802.0,3227.0
38012,661.0,802.0,3227.0
38013,661.0,1394.0,3227.0
38014,661.0,1394.0,3227.0
38015,661.0,1394.0,3227.0
38016,592.0,1394.0,3227.0
38017,592.0,1394.0,3227.0
38018,592.0,1394.0,3227.0
38019,592.0,1394.0,3227.0
38020,592.0,1394.0,3227.0
38021,592.0,1394.0,3227.0
38022,592.0,1394.0,3227.0
38023,592.0,1394.0,3227.0
39673,585.0,574.0,375.0
39674,585.0,1112.0,375.0
39675,585.0,1112.0,375.0
39676,585.0,601.0,375.0
39677,585.0,601.0,375.0
39678,585.0,1030.0,137.0
39679,585.0,1030.0,137.0
39680,585.0,1030.0,137.0
39681,585.0,1030.0,215.0
39682,585.0,1030.0,215.0
39683,585.0,1030.0,215.0
39684,585.0,1030.0,218.0
39685,585.0,1030.0,218.0
39686,585.0,537.0,218.0
39687,585.0,537.0,225.0
39688,585.0,537.0,225.0
39689,585.0,537.0,225.0
39690,585.0,537.0,225.0
39691,585.0,537.0,246.0
39692,585.0,537.0,246.0
39693,585.0,537.0,246.0
39694,585.0,377.0,246.0
39695,585.0,377.0,246.0
39696,585.0,377.0,126.0
39697,585.0,377.0,126.0
39698,585.0,377.0,126.0
39699,585.0,377.0,126.0
39700,585.0,377.0,126.0
39701,585.0,377.0,126.0
39702,585.0,377.0,126.0
39703,585.0,377.0,148.0
39704,585.0,377.0,148.0
39705,585.0,377.0,148.0
39706,585.0,377.0,148.0
39707,585.0,377.0,148.0
39708,585.0,377.0,148.0
39709,585.0,377.0,148.0
39710,585.0,377.0,148.0
39711,585.0,377.0,148.0
39712,585.0,377.0,148.0
39713,585.0,377.0,148.0
39714,585.0,377.0,148.0
39715,585.0,377.0,148.0
39716,585.0,377.0,733.0
39717,585.0,377.0,733.0
39718,585.0,377.0,733.0
39719,585.0,377.0,733.0
39720,585.0,377.0,641.0
39721,585.0,377.0,641.0
39722,585.0,377.0,641.0
39723,585.0,377.0,641.0
39724,585.0,377.0,641.0
39725,585.0,377.0,641.0
39726,585.0,377.0,586.0
39727,585.0,377.0,586.0
39728,585.0,377.0,586.0
39729,585.0,377.0,586.0
39730,585.0,377.0,586.0
39731,585.0,377.0,586.0
39732,585.0,377.0,586.0
39733,585.0,377.0,586.0
39734,585.0,377.0,586.0
39735,585.0,377.0,586.0
39736,585.0,377.0,586.0
39737,585.0,377.0,586.0
39738,585.0,377.0,578.0
39739,585.0,377.0,578.0
39740,585.0,377.0,578.0
39741,585.0,377.0,578.0
39742,585.0,377.0,578.0
39743,585.0,377.0,578.0
39744,585.0,377.0,578.0
39745,585.0,377.0,578.0
39746,585.0,377.0,578.0
39747,585.0,377.0,578.0
39748,585.0,377.0,578.0
39749,585.0,377.0,578.0
39750,585.0,377.0,578.0
39751,585.0,377.0,578.0
39752,585.0,377.0,578.0
39753,894.0,377.0,578.0
39754,999.0,377.0,578.0
39755,999.0,377.0,578.0
39756,999.0,377.0,578.0
39757,999.0,377.0,578.0
39758,999.0,377.0,578.0
39759,999.0,377.0,216.0
39760,999.0,377.0,216.0
39761,999.0,377.0,216.0
39762,999.0,377.0,119.0
39763,999.0,377.0,119.0
39764,999.0,377.0,119.0
39765,999.0,377.0,119.0
39766,999.0,377.0,257.0
39767,999.0,377.0,257.0
39768,999.0,377.0,257.0
39769,999.0,377.0,257.0
39770,999.0,377.0,257.0
39771,999.0,377.0,257.0
39772,999.0,377.0,257.0
39773,999.0,377.0,239.0
39774,498.0,377.0,239.0
39775,498.0,377.0,239.0
39776,498.0,377.0,239.0
39777,498.0,377.0,239.0
39778,498.0,377.0,239.0
39779,498.0,377.0,239.0
39780,498.0,377.0,251.0
39781,498.0,377.0,251.0
39782,498.0,377.0,251.0
39783,498.0,377.0,251.0
39784,498.0,377.0,251.0
39785,498.0,377.0,147.0
39786,498.0,377.0,147.0
39787,498.0,377.0,147.0
39788,498.0,377.0,298.0
39789,498.0,377.0,298.0
39790,498.0,377.0,298.0
39791,498.0,377.0,88.0
39792,498.0,377.0,88.0
39793,498.0,377.0,88.0
39794,498.0,377.0,88.0
39795,498.0,377.0,88.0
39796,498.0,377.0,88.0
39797,498.0,377.0,88.0
39798,498.0,377.0,88.0
39799,498.0,377.0,88.0
39800,498.0,377.0,88.0
39801,498.0,377.0,225.0
39802,498.0,377.0,225.0
39803,498.0,377.0,225.0
39804,498.0,377.0,225.0
39805,498.0,377.0,225.0
39806,498.0,377.0,225.0
39807,498.0,377.0,225.0
39808,498.0,377.0,225.0
39809,498.0,377.0,328.0
39810,498.0,377.0,328.0
39811,498.0,377.0,184.0
39812,498.0,377.0,184.0
39813,498.0,377.0,184.0
39814,498.0,377.0,184.0
39815,498.0,377.0,184.0
39816,498.0,377.0,184.0
39817,498.0,377.0,184.0
39818,723.0,377.0,184.0
39819,723.0,377.0,170.0
39820,923.0,377.0,170.0
39821,923.0,377.0,170.0
39822,460.0,377.0,170.0
39823,460.0,377.0,268.0
39824,460.0,377.0,268.0
39825,460.0,377.0,133.0
39826,460.0,377.0,133.0
39827,460.0,377.0,133.0
41376,385.0,349.0,496.0
41377,385.0,349.0,496.0
41378,385.0,355.0,496.0
41379,385.0,355.0,496.0
41380,385.0,355.0,496.0
41381,385.0,355.0,496.0
41382,385.0,355.0,496.0
41383,1262.0,232.0,496.0
41384,1262.0,232.0,496.0
41385,1262.0,232.0,496.0
41386,1262.0,232.0,496.0
41387,1262.0,195.0,496.0
41388,1262.0,195.0,496.0
41389,1262.0,195.0,496.0
41390,1262.0,195.0,231.0
41391,1262.0,195.0,231.0
41392,1262.0,195.0,231.0
41393,1262.0,195.0,231.0
41394,1262.0,195.0,231.0
41395,1262.0,195.0,231.0
41396,1262.0,195.0,231.0
41397,1262.0,195.0,231.0
41398,1262.0,195.0,231.0
41399,722.0,195.0,231.0
41400,722.0,952.0,231.0
41401,722.0,952.0,231.0
41402,722.0,952.0,231.0
41403,722.0,952.0,231.0
41404,722.0,952.0,231.0
41405,722.0,952.0,231.0
41406,722.0,952.0,231.0
41407,722.0,1172.0,231.0
41408,722.0,1172.0,231.0
41409,722.0,1172.0,231.0
41410,722.0,844.0,231.0
41411,722.0,844.0,231.0
41412,722.0,844.0,231.0
41413,722.0,844.0,231.0
41414,722.0,844.0,231.0
41415,722.0,844.0,231.0
41416,722.0,844.0,231.0
41417,722.0,787.0,231.0
41418,722.0,787.0,231.0
41419,722.0,787.0,231.0
41420,722.0,787.0,231.0
41421,722.0,787.0,231.0
41422,722.0,787.0,231.0
41423,722.0,787.0,231.0
41424,722.0,787.0,231.0
41425,722.0,787.0,231.0
41426,722.0,787.0,231.0
41427,1181.0,787.0,231.0
41428,1181.0,787.0,231.0
41429,1181.0,787.0,231.0
41430,1181.0,787.0,231.0
41431,744.0,787.0,231.0
41432,744.0,787.0,231.0
41433,744.0,787.0,231.0
41434,744.0,365.0,231.0
41435,744.0,365.0,231.0
41436,744.0,365.0,231.0
41437,744.0,409.0,231.0
41438,744.0,409.0,231.0
41439,744.0,409.0,231.0
41440,744.0,409.0,231.0
41441,744.0,141.0,231.0
41442,744.0,141.0,231.0
41443,744.0,220.0,231.0
41444,744.0,220.0,231.0
41445,744.0,220.0,231.0
41446,744.0,220.0,231.0
41447,744.0,220.0,231.0
41448,744.0,220.0,231.0
41449,744.0,220.0,231.0
41450,744.0,220.0,231.0
41451,744.0,220.0,231.0
41452,461.0,220.0,231.0
41453,461.0,220.0,231.0
41454,233.0,220.0,231.0
41455,233.0,220.0,231.0
41456,233.0,220.0,231.0
41457,233.0,220.0,231.0
41458,486.0,220.0,231.0
41459,486.0,220.0,231.0
41460,486.0,220.0,231.0
41461,486.0,220.0,231.0
41462,486.0,220.0,231.0
41463,486.0,220.0,231.0
41464,486.0,220.0,231.0
41465,486.0,220.0,231.0
41466,486.0,220.0,231.0
41467,486.0,220.0,231.0
41468,486.0,220.0,231.0
41469,486.0,220.0,231.0
41470,486.0,220.0,231.0
41471,486.0,220.0,231.0
41472,486.0,220.0,231.0
41473,486.0,220.0,231.0
41474,1233.0,220.0,231.0
41475,1233.0,220.0,231.0
41476,738.0,52.0,231.0
41477,738.0,52.0,231.0
41478,622.0,52.0,231.0
41479,622.0,52.0,231.0
41480,622.0,52.0,231.0
41481,622.0,52.0,231.0
41482,622.0,52.0,231.0
41483,622.0,52.0,231.0
41484,902.0,52.0,231.0
41485,902.0,52.0,231.0
41486,902.0,52.0,231.0
41487,866.0,52.0,231.0
41488,866.0,52.0,231.0
41489,866.0,52.0,231.0
41490,866.0,52.0,231.0
41491,866.0,52.0,231.0
41492,866.0,52.0,231.0
41493,866.0,52.0,231.0
41494,618.0,52.0,231.0
41495,618.0,52.0,231.0
41496,618.0,52.0,231.0
41497,618.0,52.0,231.0
41498,618.0,52.0,231.0
41499,618.0,52.0,231.0
41500,387.0,52.0,231.0
41501,387.0,52.0,231.0
41502,387.0,52.0,231.0
41503,446.0,52.0,231.0
41504,446.0,52.0,231.0
41505,215.0,52.0,231.0
41506,215.0,52.0,231.0
41507,215.0,52.0,231.0
41508,215.0,52.0,231.0
41509,215.0,52.0,231.0
41510,215.0,52.0,231.0
41511,757.0,52.0,231.0
41512,757.0,52.0,231.0
41513,757.0,52.0,231.0
41514,757.0,52.0,231.0
41515,757.0,52.0,231.0
41516,757.0,52.0,231.0
41517,757.0,161.0,231.0
41518,531.0,161.0,231.0
41519,531.0,161.0,231.0
41520,531.0,161.0,231.0
41521,531.0,161.0,231.0
41522,531.0,161.0,231.0
41523,531.0,161.0,231.0
41524,531.0,161.0,231.0
41525,531.0,161.0,231.0
41526,531.0,161.0,231.0
41527,531.0,161.0,231.0
41528,531.0,161.0,231.0
41529,531.0,161.0,231.0
42771,3071.0,1575.0,1098.0
42772,3071.0,1575.0,1098.0
42773,3071.0,1575.0,1098.0
42774,3071.0,1575.0,1098.0
42775,3071.0,1575.0,1098.0
42776,3013.0,1575.0,1098.0
42777,3013.0,1575.0,1098.0
42778,5661.0,1575.0,1098.0
42779,5661.0,1575.0,1098.0
42780,5661.0,1575.0,1098.0
42781,5661.0,1575.0,1550.0
42782,5661.0,1575.0,1550.0
42783,4227.0,1575.0,1550.0
42784,4227.0,1575.0,1550.0
42785,4227.0,1575.0,1546.0
42786,4227.0,1575.0,1546.0
42787,4227.0,1575.0,1546.0
42788,4227.0,1575.0,1546.0
42789,4227.0,1575.0,1546.0
42790,4227.0,1575.0,1546.0
42791,4227.0,1575.0,1546.0
42792,4227.0,1575.0,1546.0
42793,4227.0,1575.0,1546.0
42794,2926.0,1575.0,1546.0
42795,2926.0,1575.0,1546.0
42796,2.0,75.0,1546.0
42797,4347.0,1575.0,1546.0
42798,2841.0,1575.0,1546.0
42799,1983.0,1575.0,1546.0
42800,1983.0,1575.0,1546.0
42801,1983.0,1575.0,1546.0
42802,1983.0,1575.0,1546.0
42803,1983.0,1575.0,1546.0
42804,1983.0,1575.0,1546.0
42805,1983.0,1575.0,1546.0
42806,1983.0,1575.0,1083.0
42807,1983.0,1575.0,1083.0
42808,1983.0,1575.0,1083.0
42809,1091.0,1575.0,1083.0
42810,1091.0,1575.0,1083.0
42811,1091.0,1575.0,1083.0
42812,1091.0,1575.0,1083.0
42813,955.0,1575.0,1083.0
42814,955.0,1575.0,1083.0
42815,955.0,1218.0,1083.0
42816,955.0,1218.0,1083.0
42817,955.0,1218.0,1083.0
42818,955.0,1218.0,1083.0
42819,955.0,1218.0,1083.0
42820,955.0,1218.0,1083.0
42821,955.0,1218.0,1083.0
42822,955.0,1218.0,1083.0
42823,955.0,1218.0,1083.0
42824,955.0,1218.0,1083.0
42825,955.0,985.0,1083.0
42826,955.0,985.0,1083.0
42827,955.0,985.0,1083.0
42828,955.0,985.0,1083.0
42829,955.0,985.0,1083.0
42830,955.0,985.0,1083.0
42831,955.0,985.0,1083.0
42832,955.0,985.0,1083.0
42833,955.0,985.0,1083.0
42834,955.0,985.0,1083.0
42835,955.0,985.0,1083.0
42836,3337.0,985.0,1083.0
42837,5106.0,2204.0,656.0
42838,515106.0,2204.0,656.0
42839,5106.0,2204.0,656.0
42840,5106.0,2204.0,656.0
42841,1596.0,2204.0,656.0
42842,1596.0,2204.0,656.0
42843,1977.0,2204.0,656.0
42844,1977.0,2204.0,662.0
42845,1977.0,2204.0,662.0
42846,1977.0,2204.0,662.0
42847,1409.0,2204.0,662.0
42848,2009.0,2204.0,662.0
42849,2009.0,2204.0,662.0
42850,2009.0,2204.0,662.0
42851,2009.0,2204.0,662.0
42852,2009.0,2204.0,662.0
42853,2009.0,2204.0,662.0
42854,1612.0,2204.0,662.0
42855,1966.0,2204.0,662.0
42856,1966.0,923.0,662.0
42857,1966.0,923.0,662.0
42858,4712.0,923.0,662.0
42859,4712.0,923.0,662.0
42860,3564.0,923.0,662.0
42861,4641.0,923.0,662.0
42862,4641.0,923.0,662.0
42863,4641.0,2457.0,662.0
42864,4641.0,2457.0,662.0
42865,4641.0,2457.0,662.0
42866,4641.0,2457.0,662.0
42867,4641.0,2457.0,623.0
42868,4641.0,2457.0,623.0
42869,4641.0,2457.0,1407.0
42870,4641.0,2457.0,1407.0
42871,4561.0,2457.0,1407.0
42872,3548.0,2457.0,1407.0
42873,3548.0,2457.0,1407.0
42874,3715.0,2457.0,1407.0
42875,4018.0,2457.0,1407.0
42876,4018.0,2457.0,1407.0
42877,3386.0,2457.0,1407.0
42878,2155.0,2457.0,1407.0
42879,2201.0,2457.0,1407.0
42880,1222.0,2457.0,714.0
42881,5233.0,2457.0,714.0
42882,2454.0,2457.0,714.0
42883,2454.0,2457.0,714.0
42884,2106.0,2457.0,714.0
42885,1372.0,1523.0,714.0
42886,1372.0,1523.0,958.0
42887,1372.0,1523.0,958.0
42888,1372.0,1523.0,1207.0
42889,1372.0,1523.0,1207.0
42890,1838.0,1523.0,1207.0
42891,1838.0,1523.0,1207.0
42892,1838.0,1523.0,1207.0
42893,4156.0,1523.0,1207.0
42894,456.0,1523.0,1207.0
42895,41156.0,1523.0,1207.0
42896,1040.0,1523.0,1207.0
42897,1040.0,1523.0,1207.0
42898,440.0,1523.0,1207.0
42899,10040.0,1523.0,1207.0
42900,1040.0,1523.0,1207.0
42901,1040.0,1523.0,1207.0
42902,1040.0,1523.0,1207.0
42903,1040.0,1523.0,1207.0
42904,1874.0,1523.0,1207.0
42905,1874.0,1523.0,1207.0
42906,1874.0,1523.0,1207.0
42907,1866.0,1523.0,1207.0
42908,1866.0,1523.0,1207.0
42909,1866.0,1837.0,1207.0
42910,1866.0,1837.0,1207.0
42911,1866.0,1837.0,1207.0
44705,4457.0,1360.0,850.0
44706,4457.0,1360.0,583.0
44707,4457.0,1360.0,1310.0
44708,4457.0,1360.0,840.0
44709,4457.0,1360.0,566.0
44710,4457.0,1360.0,566.0
44711,4457.0,1360.0,566.0
44712,4457.0,1360.0,566.0
44713,4910.0,1360.0,566.0
44714,4910.0,1360.0,566.0
44715,4910.0,1360.0,566.0
44716,4910.0,1360.0,566.0
44717,4910.0,1360.0,659.0
44718,4910.0,1360.0,659.0
44719,4910.0,1360.0,659.0
44720,4910.0,1360.0,993.0
44721,4910.0,1360.0,187.0
44722,4910.0,1360.0,1334.0
44723,4910.0,1360.0,1334.0
44724,4910.0,1360.0,1182.0
44725,4910.0,1360.0,1001.0
44726,4910.0,1360.0,1329.0
44727,4910.0,1360.0,611.0
44728,4910.0,1360.0,611.0
44729,4910.0,1360.0,611.0
44730,4910.0,1360.0,611.0
44731,4910.0,1360.0,611.0
44732,4910.0,1360.0,1105.0
44733,4910.0,1360.0,1105.0
44734,4910.0,1360.0,1105.0
44735,4910.0,1360.0,605.0
44736,10.0,1360.0,605.0
44737,4910.0,1360.0,605.0
44738,4910.0,1360.0,605.0
44739,4910.0,3807.0,605.0
44740,4910.0,3807.0,605.0
44741,4910.0,3807.0,605.0
44742,4910.0,3807.0,605.0
44743,4910.0,3807.0,605.0
44744,4910.0,3807.0,605.0
44745,4910.0,3807.0,605.0
44746,4910.0,3807.0,605.0
44747,4910.0,3807.0,851.0
44748,2429.0,3807.0,851.0
44749,2429.0,3807.0,851.0
44750,2498.0,3807.0,851.0
44751,2779.0,3807.0,851.0
44752,2779.0,3807.0,851.0
44753,2779.0,3807.0,851.0
44754,2779.0,3807.0,851.0
44755,2779.0,3807.0,851.0
44756,2779.0,3807.0,851.0
44757,2779.0,3807.0,818.0
44758,2779.0,3807.0,818.0
44759,2779.0,3807.0,818.0
44760,2779.0,3807.0,818.0
44761,3271.0,3807.0,818.0
44762,3271.0,3807.0,818.0
44763,3271.0,3807.0,818.0
44764,3271.0,2232.0,841.0
44765,3271.0,2232.0,841.0
44766,3271.0,2232.0,841.0
44767,3271.0,2232.0,841.0
44768,3271.0,2232.0,841.0
44769,3271.0,2232.0,1206.0
44770,1745.0,2232.0,1206.0
44771,1745.0,2232.0,1206.0
44772,1619.0,2232.0,1206.0
44773,1619.0,2232.0,1206.0
44774,1619.0,2232.0,1206.0
44775,1619.0,2232.0,1206.0
44776,1619.0,2232.0,1206.0
44777,1619.0,2232.0,1206.0
44778,1619.0,2232.0,1206.0
44779,1619.0,2232.0,1206.0
44780,19.0,2232.0,1206.0
44781,16619.0,2232.0,1206.0
44782,1619.0,2232.0,1206.0
44783,1619.0,2232.0,1206.0
44784,1619.0,2232.0,1206.0
44785,1619.0,2232.0,1206.0
44786,1619.0,2232.0,1206.0
44787,2336.0,2232.0,1206.0
44788,2312.0,2232.0,1206.0
44789,2312.0,2232.0,1206.0
44790,2312.0,2232.0,1206.0
44791,2312.0,2232.0,1206.0
44792,2312.0,2232.0,1206.0
44793,2312.0,2232.0,1206.0
44794,2312.0,2232.0,1206.0
44795,2312.0,2232.0,1206.0
44796,1634.0,2232.0,1206.0
44797,1634.0,2232.0,1206.0
44798,1634.0,2232.0,1206.0
44799,1634.0,2232.0,1206.0
44800,2348.0,2232.0,1206.0
44801,2348.0,2232.0,1206.0
44802,2103.0,2232.0,1179.0
44803,3036.0,2232.0,1179.0
44804,3036.0,2232.0,1179.0
44805,2844.0,2232.0,1179.0
44806,2844.0,2232.0,1179.0
44807,954.0,2232.0,1179.0
44808,954.0,2232.0,678.0
44809,954.0,2232.0,678.0
44810,954.0,2232.0,678.0
44811,954.0,2232.0,678.0
44812,954.0,2232.0,678.0
44813,954.0,2232.0,678.0
44814,954.0,2232.0,773.0
44815,334.0,2232.0,773.0
44816,9554.0,2232.0,479.0
44817,954.0,2232.0,1215.0
44818,954.0,2232.0,1215.0
44819,954.0,2232.0,710.0
44820,1618.0,2232.0,488.0
44821,1618.0,2232.0,488.0
44822,1618.0,2232.0,488.0
44823,1618.0,2232.0,488.0
44824,1618.0,2232.0,488.0
44825,1618.0,2232.0,812.0
44826,1618.0,2232.0,812.0
44827,16618.0,2232.0,812.0
44828,1618.0,2232.0,812.0
44829,1618.0,2232.0,812.0
44830,1618.0,2232.0,812.0
44831,1618.0,2232.0,812.0
44832,1618.0,2232.0,812.0
44833,1618.0,2232.0,812.0
44834,1618.0,2232.0,812.0
44835,1618.0,2232.0,812.0
44836,1618.0,2232.0,812.0
44837,1618.0,1350.0,812.0
44838,1618.0,1350.0,812.0
44839,1618.0,1350.0,812.0
44840,1618.0,1350.0,812.0
44841,1618.0,576.0,812.0
46487,442.0,914.0,269.0
46488,442.0,914.0,269.0
46489,442.0,584.0,269.0
46490,442.0,584.0,269.0
46491,442.0,584.0,269.0
46492,442.0,584.0,132.0
46493,442.0,584.0,132.0
46494,442.0,584.0,379.0
46495,442.0,584.0,379.0
46496,442.0,584.0,379.0
46497,442.0,584.0,379.0
46498,442.0,1314.0,379.0
46499,442.0,1314.0,379.0
46500,442.0,1314.0,379.0
46501,442.0,1315.0,379.0
46502,442.0,1315.0,379.0
46503,442.0,1315.0,336.0
46504,442.0,1315.0,402.0
46505,442.0,1315.0,402.0
46506,442.0,1315.0,186.0
46507,442.0,1315.0,186.0
46508,442.0,1315.0,186.0
46509,442.0,1315.0,186.0
46510,442.0,1315.0,186.0
46511,442.0,1315.0,186.0
46512,442.0,1315.0,186.0
46513,442.0,1315.0,186.0
46514,442.0,1315.0,186.0
46515,442.0,1315.0,186.0
46516,442.0,1315.0,186.0
46517,442.0,1315.0,186.0
46518,442.0,1315.0,186.0
46519,442.0,1315.0,186.0
46520,442.0,1315.0,186.0
46521,442.0,1315.0,231.0
46522,442.0,1378.0,231.0
46523,442.0,1378.0,231.0
46524,442.0,1378.0,231.0
46525,442.0,1378.0,231.0
46526,442.0,1378.0,231.0
46527,442.0,1378.0,231.0
46528,442.0,1378.0,231.0
46529,442.0,1378.0,222.0
46530,42.0,1378.0,557.0
46531,442.0,1378.0,557.0
46532,442.0,1378.0,557.0
46533,442.0,1378.0,557.0
46534,442.0,1378.0,557.0
46535,442.0,1378.0,557.0
46536,442.0,1378.0,557.0
46537,442.0,1378.0,211.0
46538,442.0,1378.0,211.0
46539,442.0,1378.0,211.0
46540,442.0,1378.0,211.0
46541,442.0,1378.0,211.0
46542,442.0,1378.0,211.0
46543,600.0,1378.0,211.0
46544,600.0,1378.0,211.0
46545,600.0,1378.0,211.0
46546,600.0,1053.0,211.0
46547,600.0,1053.0,424.0
46548,600.0,1053.0,424.0
46549,600.0,1053.0,424.0
46550,303.0,1053.0,335.0
46551,305.0,1053.0,335.0
46552,305.0,1053.0,335.0
46553,305.0,1053.0,335.0
46554,305.0,1053.0,335.0
46555,305.0,1053.0,335.0
46556,305.0,1053.0,335.0
46557,305.0,1053.0,335.0
46558,305.0,1053.0,335.0
46559,305.0,1053.0,335.0
46560,305.0,1979.0,570.0
46561,305.0,1979.0,202.0
46562,340.0,1979.0,202.0
46563,340.0,1979.0,202.0
46564,340.0,1979.0,119.0
46565,340.0,1979.0,119.0
46566,340.0,1979.0,198.0
46567,340.0,1979.0,198.0
46568,340.0,1979.0,198.0
46569,340.0,1979.0,289.0
46570,340.0,1979.0,289.0
46571,340.0,1979.0,277.0
46572,340.0,1979.0,592.0
46573,340.0,1979.0,257.0
46574,523.0,1979.0,257.0
46575,523.0,1979.0,257.0
46576,523.0,1979.0,257.0
46577,523.0,1979.0,257.0
46578,313.0,1979.0,132.0
46579,313.0,1979.0,132.0
46580,313.0,1979.0,169.0
46581,313.0,1979.0,169.0
46582,313.0,1979.0,400.0
46583,313.0,1979.0,400.0
46584,313.0,1979.0,400.0
46585,313.0,1979.0,400.0
46586,313.0,1979.0,400.0
46587,313.0,1979.0,168.0
46588,313.0,1979.0,236.0
46589,313.0,1979.0,236.0
46590,313.0,1979.0,360.0
46591,313.0,1979.0,360.0
46592,313.0,1979.0,448.0
46593,313.0,1979.0,448.0
46594,313.0,1979.0,448.0
46595,313.0,1979.0,448.0
46596,313.0,1979.0,448.0
46597,313.0,1979.0,193.0
46598,313.0,1979.0,129.0
46599,313.0,1979.0,129.0
46600,313.0,1979.0,332.0
46601,313.0,1979.0,148.0
46602,313.0,1979.0,148.0
46603,313.0,1979.0,148.0
46604,313.0,1979.0,186.0
46605,313.0,1979.0,186.0
46606,313.0,1979.0,186.0
46607,313.0,1979.0,186.0
46608,313.0,1979.0,186.0
46609,313.0,1979.0,186.0
46610,313.0,1979.0,186.0
46611,313.0,1979.0,186.0
46612,313.0,1979.0,186.0
46613,3100.0,1979.0,186.0
48204,643.0,4193.0,485.0
48205,2777.0,143.0,682.0
48206,277.0,356.0,682.0
48207,277.0,392.0,682.0
48208,277.0,392.0,682.0
48209,277.0,175.0,682.0
48210,277.0,175.0,682.0
48211,277.0,160.0,682.0
48212,277.0,160.0,682.0
48213,277.0,160.0,682.0
48214,277.0,160.0,682.0
48215,277.0,197.0,682.0
48216,277.0,197.0,682.0
48217,277.0,197.0,682.0
48218,277.0,197.0,682.0
48219,277.0,197.0,682.0
48220,277.0,197.0,682.0
49672,649.0,408.0,198.0
49673,649.0,408.0,198.0
49674,1160.0,408.0,198.0
49675,1160.0,408.0,198.0
49676,1160.0,408.0,198.0
49677,241.0,408.0,198.0
49678,241.0,408.0,198.0
49679,241.0,408.0,198.0
49680,241.0,258.0,198.0
49681,241.0,258.0,198.0
49682,241.0,258.0,198.0
49683,241.0,258.0,198.0
49684,241.0,258.0,198.0
49685,241.0,258.0,198.0
49686,241.0,258.0,198.0
49687,241.0,258.0,48.0
49688,241.0,258.0,110.0
49689,241.0,258.0,110.0
49690,794.0,258.0,110.0
49691,794.0,258.0,110.0
49692,636.0,258.0,110.0
49693,636.0,258.0,110.0
49694,238.0,258.0,110.0
49695,238.0,258.0,110.0
49696,750.0,258.0,110.0
49697,750.0,258.0,110.0
49698,750.0,258.0,110.0
49699,750.0,258.0,110.0
49700,750.0,258.0,110.0
49701,750.0,258.0,110.0
49702,750.0,258.0,110.0
49703,750.0,258.0,110.0
49704,750.0,258.0,110.0
49705,750.0,258.0,110.0
49706,750.0,258.0,110.0
49707,750.0,258.0,110.0
49708,750.0,258.0,110.0
49709,750.0,258.0,110.0
49710,750.0,198.0,110.0
49711,750.0,198.0,110.0
49712,750.0,804.0,110.0
49713,750.0,804.0,110.0
49714,750.0,804.0,110.0
49715,750.0,804.0,110.0
49716,750.0,804.0,110.0
49717,750.0,804.0,110.0
49718,750.0,804.0,110.0
49719,750.0,804.0,110.0
49720,754.0,804.0,110.0
49721,935.0,804.0,110.0
49722,1362.0,804.0,110.0
49723,1362.0,804.0,110.0
49724,1362.0,804.0,110.0
49725,1362.0,804.0,110.0
49726,1362.0,804.0,110.0
49727,1362.0,754.0,110.0
49728,1362.0,754.0,110.0
49729,1362.0,754.0,110.0
49730,1362.0,754.0,110.0
49731,775.0,754.0,110.0
49732,775.0,754.0,110.0
49733,775.0,754.0,110.0
49734,775.0,754.0,110.0
49735,775.0,754.0,110.0
49736,775.0,754.0,110.0
49737,775.0,1062.0,110.0
49738,775.0,1062.0,110.0
49739,775.0,1149.0,110.0
49740,775.0,1149.0,110.0
49741,822.0,1149.0,110.0
49742,1282.0,1149.0,110.0
49743,1282.0,1149.0,110.0
49744,1282.0,1031.0,110.0
49745,1282.0,1031.0,110.0
49746,1282.0,939.0,110.0
49747,1282.0,1486.0,110.0
49748,1282.0,1486.0,110.0
49749,1282.0,816.0,110.0
49750,1282.0,1174.0,110.0
49751,1282.0,1174.0,110.0
49752,1282.0,1174.0,110.0
49753,1282.0,1174.0,110.0
49754,1282.0,1174.0,110.0
49755,1282.0,1174.0,110.0
49756,1282.0,1174.0,110.0
49757,971.0,1174.0,110.0
49758,971.0,999.0,110.0
49759,971.0,999.0,110.0
49760,971.0,933.0,110.0
49761,971.0,933.0,110.0
49762,562.0,933.0,110.0
49763,562.0,933.0,110.0
49764,1914.0,933.0,110.0
49765,569.0,933.0,110.0
49766,569.0,933.0,110.0
49767,569.0,933.0,110.0
49768,569.0,933.0,110.0
49769,569.0,933.0,110.0
49770,685.0,933.0,110.0
49771,685.0,933.0,110.0
49772,701.0,933.0,110.0
49773,701.0,933.0,110.0
49774,701.0,933.0,110.0
49775,701.0,933.0,110.0
49776,1130.0,933.0,110.0
49777,468.0,933.0,110.0
49778,1644.0,933.0,110.0
49779,909.0,933.0,110.0
49780,528.0,933.0,110.0
49781,807.0,933.0,110.0
49782,807.0,933.0,110.0
49783,807.0,933.0,110.0
49784,807.0,1311.0,110.0
49785,807.0,1311.0,110.0
49786,807.0,1347.0,110.0
49787,807.0,1347.0,110.0
49788,807.0,1168.0,110.0
49789,807.0,1168.0,110.0
49790,774.0,1168.0,110.0
49791,774.0,1168.0,110.0
49792,774.0,1162.0,110.0
49793,774.0,1162.0,110.0
49794,774.0,1162.0,110.0
49795,774.0,1162.0,110.0
49796,774.0,1162.0,110.0
49797,774.0,1162.0,110.0
49798,774.0,1162.0,110.0
49799,774.0,1162.0,110.0
49800,774.0,1162.0,110.0
49801,639.0,1162.0,110.0
49802,1301.0,776.0,110.0
49803,1301.0,776.0,110.0
49804,1301.0,776.0,110.0
49805,1301.0,776.0,110.0
49806,1301.0,776.0,110.0
49807,719.0,776.0,110.0
49808,719.0,776.0,110.0
49809,719.0,776.0,110.0
49810,719.0,776.0,110.0
49811,748.0,776.0,110.0
49812,1008.0,776.0,110.0
49813,1008.0,776.0,110.0
49814,761.0,776.0,110.0
49815,761.0,776.0,110.0
49816,761.0,887.0,110.0
49817,825.0,887.0,110.0
49818,825.0,887.0,110.0
49819,825.0,887.0,110.0
49820,825.0,887.0,110.0
49821,548.0,887.0,110.0
49822,548.0,887.0,110.0
49823,548.0,645.0,110.0
49824,548.0,645.0,110.0
49825,548.0,645.0,110.0
55706,1648.0,1292.0,2667.0
55707,1648.0,1292.0,2667.0
55708,1648.0,1292.0,2667.0
55709,1221.0,1292.0,2667.0
55710,1221.0,1292.0,2667.0
55711,1221.0,1292.0,2667.0
55712,1221.0,1292.0,2667.0
55713,1221.0,1292.0,2667.0
55714,1221.0,1292.0,2667.0
55715,1221.0,890.0,2667.0
55716,1221.0,1573.0,2667.0
55717,3007.0,1426.0,2667.0
55718,3007.0,1426.0,2667.0
55719,3007.0,575.0,2667.0
55720,3007.0,965.0,2667.0
55721,3007.0,965.0,2667.0
55722,1394.0,965.0,2667.0
55723,1394.0,304.0,2667.0
55724,1394.0,304.0,4048.0
55725,1394.0,304.0,4048.0
55726,1394.0,304.0,3704.0
55727,1394.0,304.0,3704.0
55728,1394.0,304.0,3704.0
55729,1394.0,304.0,3704.0
55730,1393.0,1805.0,3704.0
55731,1393.0,1805.0,3704.0
55732,945.0,1164.0,3704.0
55733,945.0,1164.0,3721.0
55734,1052.0,1164.0,3721.0
55735,1052.0,1164.0,3721.0
55736,1.0,767.0,3721.0
55737,10521052.0,979.0,4007.0
55738,1052.0,1114.0,1638.0
55739,1000.0,1114.0,1638.0
55740,1052.0,1114.0,1320.0
55741,1052.0,1114.0,3880.0
55742,1052.0,1114.0,3880.0
55743,1147.0,1114.0,3880.0
55744,1147.0,1114.0,3880.0
55745,1461.0,1114.0,3880.0
55746,1403.0,1114.0,3880.0
55747,2252.0,1114.0,3880.0
55748,2252.0,1114.0,3880.0
55749,2252.0,878.0,3880.0
55750,2012.0,722.0,3880.0
55751,2012.0,722.0,3880.0
55752,2012.0,722.0,3880.0
55753,2423.0,959.0,3880.0
55754,1033.0,959.0,3880.0
55755,1033.0,959.0,3880.0
55756,1033.0,959.0,3880.0
55757,2629.0,691.0,3880.0
55758,712.0,691.0,3880.0
55759,712.0,691.0,3880.0
55760,538.0,691.0,3880.0
55761,538.0,1321.0,3880.0
55762,538.0,1321.0,3880.0
55763,809.0,1101.0,3880.0
55764,809.0,1101.0,3880.0
55765,809.0,1101.0,3880.0
55766,809.0,1101.0,3880.0
55767,809.0,532.0,3880.0
55768,2373.0,532.0,3880.0
55769,2373.0,532.0,3643.0
55770,2373.0,532.0,3643.0
55771,2373.0,532.0,3643.0
55772,2373.0,1264.0,3643.0
55773,73.0,1264.0,3643.0
55774,23373.0,1264.0,2042.0
55775,2373.0,817.0,2042.0
55776,2373.0,817.0,2042.0
55777,1487.0,817.0,2042.0
55778,1487.0,817.0,2042.0
55779,1487.0,817.0,2042.0
55780,1487.0,1556.0,2042.0
55781,1487.0,1039.0,2042.0
55782,1487.0,1039.0,2042.0
55783,1487.0,1039.0,2042.0
55784,910.0,1039.0,2042.0
55785,910.0,285.0,2042.0
55786,910.0,1083.0,2042.0
55787,910.0,1083.0,2042.0
55788,910.0,1572.0,2042.0
55789,1467.0,1572.0,2042.0
55790,1457.0,1572.0,2042.0
55791,2138.0,1572.0,2042.0
55792,2138.0,1572.0,2042.0
55793,2138.0,708.0,2042.0
55794,2138.0,1580.0,2042.0
55795,1101.0,1580.0,2042.0
55796,1101.0,465.0,3033.0
55797,1101.0,465.0,3033.0
55798,1101.0,465.0,4219.0
55799,1101.0,465.0,5166.0
55800,1101.0,465.0,5166.0
55801,1101.0,465.0,3458.0
55802,1101.0,465.0,3458.0
55803,1101.0,465.0,3458.0
55804,1101.0,465.0,3458.0
55805,1101.0,1116.0,3458.0
55806,1101.0,1116.0,3458.0
55807,101.0,955.0,3458.0
55808,887.0,1453.0,3458.0
55809,887.0,1453.0,3458.0
55810,887.0,1453.0,3458.0
55811,887.0,1453.0,3458.0
55812,887.0,542.0,3458.0
55813,887.0,542.0,3458.0
55814,887.0,542.0,4206.0
55815,887.0,1757.0,4206.0
55816,887.0,1757.0,4206.0
55817,887.0,1757.0,2367.0
55818,887.0,407.0,2367.0
55819,887.0,407.0,2367.0
55820,887.0,1618.0,2367.0
55821,887.0,1618.0,2065.0
55822,887.0,1618.0,2065.0
55823,887.0,1618.0,1482.0
55824,887.0,1013.0,1482.0
55825,887.0,1013.0,2822.0
55826,887.0,944.0,2822.0
55827,887.0,944.0,2365.0
55828,887.0,944.0,2365.0
55829,887.0,944.0,3809.0
55830,887.0,779.0,3809.0
55831,887.0,798.0,3809.0
55832,887.0,798.0,3809.0
55833,887.0,798.0,3809.0
55834,1558.0,798.0,3809.0
55835,1558.0,798.0,3809.0
55836,1558.0,798.0,3809.0
57543,1755.0,818.0,3197.0
57544,1755.0,818.0,3197.0
57545,1755.0,818.0,3197.0
57546,1680.0,818.0,2996.0
57547,1680.0,517.0,2996.0
57548,1680.0,517.0,2996.0
57549,1680.0,517.0,2996.0
57550,1680.0,517.0,2996.0
57551,1201.0,517.0,2996.0
57552,1201.0,517.0,2996.0
57553,1201.0,517.0,2996.0
57554,1201.0,500.0,2996.0
57555,1201.0,407.0,2996.0
57556,1201.0,1686.0,2996.0
57557,1201.0,810.0,2996.0
57558,1201.0,810.0,1803.0
57559,1201.0,810.0,1803.0
57560,1201.0,810.0,2159.0
57561,1201.0,810.0,2159.0
57562,1201.0,889.0,2159.0
57563,1201.0,889.0,3505.0
57564,1201.0,889.0,1636.0
57565,1201.0,889.0,1488.0
57566,1201.0,889.0,1488.0
57567,1201.0,889.0,3235.0
57568,1201.0,889.0,3235.0
57569,1201.0,889.0,3235.0
57570,1201.0,889.0,3235.0
57571,1201.0,1065.0,3235.0
57572,1201.0,1030.0,2948.0
57573,1201.0,1030.0,2948.0
57574,201.0,1030.0,2948.0
57575,1201.0,1030.0,3580.0
57576,1201.0,1030.0,3580.0
57577,1201.0,1030.0,2536.0
57578,1035.0,418.0,2536.0
57579,1035.0,418.0,2536.0
57580,1035.0,418.0,2323.0
57581,1035.0,418.0,2323.0
57582,1035.0,418.0,2897.0
57583,1035.0,418.0,2897.0
57584,897.0,1509.0,2897.0
57585,897.0,506.0,2897.0
57586,890.0,506.0,2897.0
57587,897.0,506.0,2897.0
57588,2692.0,506.0,2897.0
57589,2692.0,506.0,2897.0
57590,2692.0,506.0,2897.0
57591,2692.0,506.0,2897.0
57592,2692.0,506.0,2897.0
57593,2692.0,506.0,2897.0
57594,2692.0,1213.0,2897.0
57595,2692.0,1224.0,2897.0
57596,2692.0,1075.0,2897.0
57597,2692.0,751.0,2897.0
57598,1133.0,751.0,2897.0
57599,1133.0,751.0,2897.0
57600,1133.0,751.0,2897.0
57601,1653.0,751.0,2897.0
57602,1653.0,751.0,2897.0
57603,1653.0,751.0,2897.0
57604,1653.0,751.0,2897.0
57605,1653.0,751.0,2897.0
57606,1653.0,751.0,2897.0
57607,2333.0,751.0,2897.0
57608,1919.0,751.0,2897.0
57609,1919.0,751.0,2897.0
57610,1919.0,751.0,2897.0
57611,1919.0,751.0,2897.0
57612,1919.0,751.0,2152.0
57613,1919.0,751.0,2152.0
57614,1919.0,751.0,2152.0
57615,1919.0,751.0,2152.0
57616,1919.0,751.0,3065.0
57617,1919.0,751.0,3065.0
57618,1919.0,751.0,3065.0
57619,1919.0,666.0,3065.0
57620,1919.0,612.0,3065.0
57621,1919.0,612.0,3065.0
57622,1827.0,612.0,3065.0
57623,1827.0,612.0,3065.0
57624,1827.0,612.0,3633.0
57625,1827.0,612.0,3633.0
57626,1827.0,612.0,3633.0
57627,1827.0,612.0,3633.0
57628,1827.0,612.0,3633.0
57629,1827.0,612.0,3633.0
57630,1827.0,612.0,3633.0
57631,1827.0,612.0,3633.0
57632,1398.0,612.0,3633.0
57633,1398.0,612.0,3633.0
57634,1398.0,612.0,3633.0
57635,1398.0,612.0,3633.0
57636,1398.0,612.0,3633.0
57637,1398.0,612.0,3633.0
57638,1398.0,612.0,3633.0
57639,1398.0,1159.0,3633.0
57640,2328.0,1159.0,3633.0
57641,2328.0,783.0,3633.0
57642,2328.0,992.0,3633.0
57643,2328.0,979.0,3633.0
57644,2328.0,862.0,3633.0
57645,2328.0,862.0,3633.0
57646,2328.0,862.0,3633.0
57647,2328.0,862.0,3633.0
57648,1846.0,862.0,3633.0
57649,1846.0,862.0,3633.0
57650,1846.0,862.0,3633.0
57651,1846.0,862.0,3633.0
57652,1846.0,862.0,1977.0
57653,1846.0,862.0,1977.0
57654,1846.0,830.0,1977.0
57655,1846.0,830.0,1977.0
57656,1846.0,830.0,1977.0
57657,1846.0,830.0,1977.0
57658,1846.0,830.0,4081.0
57659,1846.0,830.0,4081.0
57660,1846.0,830.0,4081.0
57661,1846.0,830.0,4081.0
57662,1846.0,830.0,4081.0
57663,1846.0,830.0,4081.0
57664,1846.0,830.0,4081.0
57665,1846.0,830.0,4081.0
57666,1193.0,666.0,4081.0
57667,1193.0,933.0,3318.0
57668,1193.0,865.0,3318.0
57669,1193.0,865.0,3318.0
57670,1193.0,572.0,3318.0
57671,1193.0,572.0,3318.0
57672,1193.0,572.0,1693.0
57673,1946.0,572.0,1693.0
59234,2675.0,2195.0,2183.0
59235,2675.0,2195.0,2183.0
59236,2675.0,2195.0,2183.0
59237,2675.0,1669.0,2183.0
59238,2675.0,1669.0,2183.0
59239,2675.0,1669.0,2183.0
59240,2675.0,1669.0,2183.0
59241,2675.0,1669.0,2183.0
59242,2675.0,1506.0,2183.0
59243,2675.0,1506.0,2183.0
59244,2675.0,1506.0,2183.0
59245,2675.0,1506.0,2183.0
59246,2675.0,1506.0,2183.0
59247,2675.0,1403.0,2183.0
59248,260.0,1403.0,2138.0
59249,2675.0,1286.0,2138.0
59250,2675.0,1286.0,2138.0
59251,2675.0,1286.0,2138.0
59252,2675.0,1286.0,2138.0
59253,2675.0,1286.0,2138.0
59254,2675.0,1286.0,2138.0
59255,2675.0,1286.0,2138.0
59256,2675.0,1286.0,2138.0
59257,2675.0,1286.0,2138.0
59258,2675.0,1286.0,1917.0
59259,2675.0,1286.0,1917.0
59260,2675.0,1286.0,1917.0
59261,2675.0,1286.0,1917.0
59262,2675.0,1286.0,1917.0
59263,75.0,1538.0,1917.0
59264,262675.0,1538.0,1917.0
59265,2675.0,3952.0,1917.0
59266,2675.0,3952.0,1917.0
59267,2675.0,3952.0,1917.0
59268,2365.0,1766.0,1917.0
59269,2365.0,1416.0,1917.0
59270,2365.0,1416.0,1917.0
59271,2365.0,1233.0,1917.0
59272,2365.0,1951.0,1917.0
59273,2365.0,2441.0,1917.0
59274,2365.0,2441.0,1917.0
59275,2365.0,2044.0,1917.0
59276,2365.0,720.0,1917.0
59277,2365.0,2132.0,1917.0
59278,2365.0,2132.0,1917.0
59279,2365.0,2132.0,1917.0
59280,1101.0,2132.0,2430.0
59281,1101.0,2132.0,2430.0
59282,1101.0,2132.0,2430.0
59283,1101.0,2132.0,2430.0
59284,1101.0,2132.0,2430.0
59285,1101.0,2132.0,2430.0
59286,1101.0,1949.0,2430.0
59287,1101.0,1949.0,2430.0
59288,1101.0,1949.0,2430.0
59289,1101.0,3115.0,2430.0
59290,1101.0,3115.0,2430.0
59291,1101.0,3115.0,2430.0
59292,1101.0,1856.0,2430.0
59293,1101.0,1308.0,2430.0
59294,2493.0,1308.0,2430.0
59295,1099.0,1308.0,2430.0
59296,1099.0,1308.0,2430.0
59297,1099.0,1308.0,2430.0
59298,1099.0,1788.0,2430.0
59299,1099.0,1791.0,2430.0
59300,1099.0,1791.0,2430.0
59301,3488.0,1791.0,2430.0
59302,3480.0,1791.0,2430.0
59303,3488.0,2363.0,2430.0
59304,3488.0,1402.0,2430.0
59305,3488.0,1721.0,2430.0
59306,3488.0,1721.0,2430.0
59307,3488.0,1721.0,2430.0
59308,3488.0,1721.0,2430.0
59309,3488.0,2046.0,2430.0
59310,3488.0,2046.0,2430.0
59311,3488.0,2046.0,2430.0
59312,3488.0,2046.0,2430.0
59313,3488.0,2750.0,2430.0
59314,3488.0,1950.0,2430.0
59315,3488.0,1950.0,2430.0
59316,3488.0,1617.0,2430.0
59317,3488.0,913.0,2430.0
59318,3488.0,2616.0,2430.0
59319,3488.0,2616.0,2430.0
59320,3488.0,2616.0,2430.0
59321,3488.0,2616.0,2430.0
59322,3488.0,2616.0,2430.0
59323,3488.0,2616.0,2430.0
59324,3488.0,2616.0,2430.0
59325,2639.0,2616.0,2430.0
59326,2639.0,2616.0,2430.0
59327,2639.0,2616.0,2430.0
59328,2639.0,2616.0,2430.0
59329,2639.0,1208.0,2430.0
59330,2639.0,1208.0,2430.0
59331,2639.0,1208.0,2430.0
59332,2639.0,1208.0,2430.0
59333,2639.0,1208.0,2430.0
59334,1857.0,1208.0,2282.0
59335,1857.0,1208.0,2282.0
59336,1857.0,1208.0,2282.0
59337,1857.0,1694.0,2282.0
59338,1857.0,1996.0,2282.0
59339,1857.0,1286.0,2282.0
59340,1857.0,1286.0,2282.0
59341,1857.0,1286.0,2282.0
59342,1857.0,1286.0,2282.0
59343,1857.0,1286.0,2282.0
59344,1857.0,2178.0,2282.0
59345,1857.0,603.0,2282.0
59346,1857.0,603.0,2282.0
59347,1857.0,603.0,2282.0
59348,1857.0,603.0,2282.0
59349,1857.0,603.0,2282.0
59350,1857.0,603.0,2282.0
59351,1857.0,603.0,2282.0
59352,1857.0,3438.0,2282.0
59353,1857.0,3438.0,2282.0
59354,1857.0,2580.0,2282.0
59355,1857.0,2580.0,2282.0
59356,1857.0,2580.0,2282.0
60869,2116.0,1701.0,2322.0
60870,2116.0,1701.0,2322.0
60871,3228.0,1701.0,2322.0
60872,3228.0,1701.0,2322.0
60873,3228.0,1701.0,2322.0
60874,3228.0,1701.0,2322.0
60875,3228.0,1701.0,2322.0
60876,2518.0,1701.0,2322.0
60877,2518.0,1701.0,2322.0
60878,2518.0,1701.0,2322.0
60879,2518.0,1701.0,2322.0
60880,2518.0,1701.0,2322.0
60881,2365.0,1701.0,2322.0
60882,2365.0,1701.0,2322.0
60883,2365.0,1330.0,2322.0
60884,2365.0,1330.0,2322.0
60885,3536.0,1330.0,2322.0
60886,3536.0,1330.0,2322.0
60887,3536.0,884.0,2322.0
60888,3536.0,1620.0,2322.0
60889,3536.0,1620.0,2322.0
60890,3536.0,1620.0,2322.0
60891,3536.0,1620.0,2322.0
60892,3536.0,1620.0,2322.0
60893,3536.0,1620.0,2322.0
60894,3536.0,1620.0,2322.0
60895,3536.0,1620.0,2322.0
60896,3536.0,1620.0,2322.0
60897,3536.0,1620.0,2322.0
60898,3536.0,1301.0,2322.0
60899,3536.0,1301.0,2322.0
60900,3536.0,1301.0,2322.0
60901,3536.0,1301.0,2322.0
60902,3536.0,1301.0,2322.0
60903,3536.0,1301.0,2322.0
60904,3536.0,1301.0,2322.0
60905,3536.0,1301.0,1647.0
60906,3536.0,1301.0,1647.0
60907,3536.0,1301.0,2415.0
60908,3536.0,1301.0,2415.0
60909,3536.0,1301.0,2688.0
60910,3536.0,1301.0,2688.0
60911,3536.0,1301.0,2688.0
60912,1546.0,1301.0,2688.0
60913,2286.0,1301.0,896.0
60914,2286.0,1301.0,896.0
60915,2286.0,1301.0,896.0
60916,2286.0,1301.0,896.0
60917,286.0,1669.0,896.0
60918,2286.0,1669.0,896.0
60919,2286.0,1669.0,896.0
60920,2696.0,1669.0,896.0
60921,2696.0,1669.0,896.0
60922,1962.0,595.0,896.0
60923,1962.0,595.0,896.0
60924,3180.0,595.0,896.0
60925,1028.0,595.0,896.0
60926,3182.0,595.0,896.0
60927,3182.0,595.0,896.0
60928,3182.0,595.0,896.0
60929,3182.0,595.0,2783.0
60930,3182.0,595.0,2783.0
60931,3182.0,595.0,2168.0
60932,3182.0,595.0,2168.0
60933,3182.0,595.0,2168.0
60934,3182.0,595.0,1555.0
60935,3182.0,595.0,2672.0
60936,3182.0,595.0,2672.0
60937,3182.0,595.0,2672.0
60938,3182.0,595.0,2357.0
60939,2093.0,595.0,2357.0
60940,2093.0,595.0,2357.0
60941,2093.0,595.0,2357.0
60942,2093.0,595.0,2357.0
60943,2093.0,595.0,2357.0
60944,2093.0,595.0,2357.0
60945,3019.0,595.0,2357.0
60946,1945.0,595.0,2357.0
60947,1945.0,595.0,2357.0
60948,3283.0,595.0,2357.0
60949,898.0,595.0,2357.0
60950,898.0,595.0,2357.0
60951,1285.0,595.0,2357.0
60952,1680.0,595.0,2357.0
60953,1680.0,595.0,2357.0
60954,1680.0,595.0,1408.0
60955,1680.0,595.0,1408.0
60956,1680.0,595.0,1408.0
60957,4403.0,595.0,1408.0
60958,4403.0,595.0,1408.0
60959,4403.0,820.0,1408.0
60960,1587.0,820.0,1408.0
60961,2079.0,820.0,1408.0
60962,2079.0,820.0,1408.0
60963,2363.0,820.0,1408.0
60964,4035.0,820.0,1408.0
60965,4035.0,820.0,1408.0
60966,770.0,820.0,1408.0
60967,770.0,820.0,1408.0
60968,770.0,820.0,1408.0
60969,770.0,820.0,1408.0
60970,770.0,820.0,1408.0
60971,2330.0,820.0,1408.0
60972,2330.0,820.0,1408.0
60973,2330.0,820.0,2786.0
60974,2330.0,820.0,2786.0
60975,2330.0,820.0,1353.0
60976,2330.0,820.0,3042.0
60977,2330.0,820.0,3042.0
60978,2330.0,820.0,3042.0
60979,2330.0,820.0,3042.0
60980,1991.0,820.0,3042.0
60981,1991.0,820.0,3042.0
60982,1991.0,917.0,3042.0
60983,1991.0,917.0,3042.0
60984,1991.0,1035.0,3042.0
60985,1672.0,1035.0,3042.0
60986,1672.0,1035.0,3042.0
60987,1672.0,1035.0,3042.0
60988,1672.0,1035.0,3042.0
60989,1672.0,1815.0,2176.0
60990,1672.0,1815.0,2176.0
60991,1672.0,1815.0,2176.0
60992,1672.0,1815.0,2176.0
60993,1672.0,1815.0,2176.0
60994,2622.0,1815.0,2176.0
60995,2622.0,1330.0,2176.0
60996,2622.0,1330.0,2176.0
60997,1622.0,1330.0,2176.0
60998,26622.0,1620.0,2176.0
60999,2622.0,1620.0,2176.0
61000,2622.0,1620.0,2176.0
61001,2167.0,1620.0,2176.0
61002,2167.0,1620.0,2176.0
61003,2167.0,1620.0,2176.0
61004,2167.0,1620.0,3307.0
61005,2167.0,1620.0,3307.0
61006,1040.0,1620.0,3707.0
61007,1040.0,1620.0,3707.0
62623,132.0,765.0,1943.0
62624,132.0,765.0,1943.0
62625,132.0,376.0,1943.0
62626,65.0,376.0,1943.0
62627,65.0,376.0,1943.0
62628,65.0,376.0,1943.0
62629,65.0,376.0,1943.0
62630,65.0,376.0,1943.0
62631,65.0,376.0,1943.0
62632,65.0,376.0,1943.0
62633,189.0,376.0,1943.0
62634,122.0,376.0,1943.0
62635,122.0,376.0,1943.0
62636,122.0,376.0,1943.0
62637,98.0,376.0,1943.0
62638,98.0,602.0,1943.0
62639,98.0,602.0,1943.0
62640,98.0,789.0,1943.0
62641,98.0,789.0,1943.0
62642,98.0,789.0,1943.0
62643,98.0,789.0,1943.0
62644,98.0,789.0,1943.0
62645,98.0,789.0,1943.0
62646,98.0,789.0,1943.0
62647,98.0,789.0,1943.0
62648,98.0,789.0,1943.0
62649,98.0,789.0,1943.0
62650,98.0,789.0,1943.0
62651,98.0,789.0,1943.0
62652,98.0,789.0,1943.0
62653,98.0,789.0,1943.0
62654,154.0,789.0,1943.0
62655,154.0,789.0,1943.0
62656,280.0,789.0,1943.0
62657,280.0,789.0,1943.0
62658,280.0,789.0,1943.0
62659,280.0,789.0,1943.0
62660,280.0,789.0,1943.0
62661,280.0,789.0,1943.0
62662,280.0,789.0,1943.0
62663,280.0,789.0,1943.0
62664,280.0,789.0,1390.0
62665,280.0,789.0,1390.0
62666,280.0,789.0,1390.0
62667,280.0,789.0,1390.0
62668,280.0,491.0,1390.0
62669,280.0,491.0,1390.0
62670,280.0,1141.0,1390.0
62671,280.0,1141.0,1390.0
62672,205.0,1141.0,1390.0
62673,205.0,1141.0,1390.0
62674,205.0,1141.0,1390.0
62675,205.0,1141.0,1390.0
62676,168.0,1141.0,1390.0
62677,168.0,1141.0,1390.0
62678,168.0,1141.0,1390.0
62679,168.0,1141.0,1390.0
62680,168.0,1141.0,1390.0
62681,168.0,1141.0,1390.0
62682,168.0,1141.0,539.0
62683,168.0,1141.0,368.0
62684,168.0,1141.0,1387.0
62685,168.0,1141.0,1387.0
62686,168.0,1141.0,401.0
62687,243.0,1141.0,401.0
62688,243.0,1141.0,401.0
62689,198.0,1141.0,401.0
62690,198.0,774.0,401.0
62691,198.0,774.0,401.0
62692,198.0,774.0,401.0
62693,198.0,774.0,401.0
62694,198.0,774.0,610.0
62695,198.0,774.0,610.0
62696,198.0,774.0,1165.0
62697,198.0,774.0,600.0
62698,198.0,774.0,600.0
62699,198.0,774.0,1320.0
62700,198.0,774.0,1320.0
62701,198.0,774.0,1320.0
62702,198.0,774.0,1320.0
62703,198.0,774.0,1101.0
62704,198.0,774.0,557.0
62705,198.0,774.0,557.0
62706,198.0,774.0,557.0
62707,198.0,774.0,1655.0
62708,198.0,860.0,1464.0
62709,198.0,860.0,1464.0
62710,198.0,860.0,1464.0
62711,198.0,860.0,1464.0
62712,198.0,860.0,1464.0
62713,198.0,860.0,1464.0
62714,198.0,860.0,1464.0
62715,198.0,860.0,1464.0
62716,198.0,860.0,1464.0
62717,212.0,860.0,1464.0
62718,212.0,860.0,1464.0
62719,212.0,795.0,1464.0
62720,212.0,795.0,1464.0
62721,209.0,1322.0,1464.0
62722,209.0,1322.0,708.0
62723,209.0,1322.0,708.0
62724,209.0,1322.0,708.0
62725,209.0,1322.0,708.0
62726,209.0,562.0,708.0
62727,209.0,562.0,708.0
62728,209.0,637.0,708.0
62729,209.0,637.0,708.0
62730,209.0,637.0,708.0
62731,209.0,637.0,708.0
62732,209.0,968.0,708.0
62733,209.0,418.0,708.0
62734,209.0,418.0,708.0
62735,209.0,470.0,708.0
62736,209.0,470.0,708.0
62737,209.0,470.0,708.0
62738,209.0,470.0,708.0
62739,209.0,470.0,708.0
62740,209.0,697.0,708.0
62741,209.0,697.0,708.0
62742,209.0,697.0,708.0
62743,209.0,697.0,708.0
62744,267.0,697.0,1115.0
62745,267.0,697.0,1115.0
62746,385.0,697.0,1115.0
62747,385.0,697.0,1115.0
62748,385.0,697.0,1115.0
62749,191.0,697.0,1115.0
62750,191.0,697.0,1115.0
62751,191.0,697.0,1115.0
62752,191.0,697.0,1258.0
62753,191.0,697.0,1258.0
62754,191.0,697.0,1258.0
62755,192.0,697.0,1258.0
62756,192.0,697.0,1258.0
62757,196.0,697.0,1258.0
62758,196.0,697.0,1258.0
62759,196.0,697.0,1465.0
62760,196.0,697.0,1486.0
62761,196.0,697.0,1486.0
62762,196.0,697.0,836.0
62763,196.0,697.0,836.0
62764,196.0,697.0,836.0
62765,196.0,697.0,443.0
62766,196.0,697.0,443.0
62767,196.0,697.0,443.0
62768,196.0,697.0,706.0
62769,196.0,697.0,676.0
62770,196.0,697.0,928.0
62771,196.0,697.0,928.0
62772,196.0,697.0,928.0
62773,196.0,697.0,1062.0
62774,196.0,697.0,1062.0
62775,196.0,697.0,1222.0
64569,1041.0,28.0,1717.0
64570,1041.0,28.0,1717.0
64571,1041.0,28.0,1717.0
64572,1041.0,246.0,1717.0
64573,1041.0,168.0,1717.0
64574,1041.0,605.0,1717.0
64575,1041.0,605.0,1717.0
64576,1041.0,605.0,1717.0
64577,1041.0,605.0,1717.0
64578,1041.0,243.0,1717.0
64579,1041.0,243.0,1717.0
64580,1041.0,243.0,1717.0
64581,1041.0,262.0,1717.0
64582,1041.0,262.0,1717.0
64583,1041.0,335.0,1717.0
64584,1041.0,335.0,1717.0
64585,1041.0,169.0,1717.0
64586,1041.0,169.0,1717.0
64587,1041.0,169.0,1717.0
64588,1041.0,169.0,1717.0
64589,1041.0,169.0,1717.0
64590,1041.0,169.0,1717.0
64591,1041.0,169.0,624.0
64592,1041.0,169.0,624.0
64593,1041.0,169.0,624.0
64594,1041.0,169.0,624.0
64595,1041.0,169.0,624.0
64596,1041.0,169.0,624.0
64597,1041.0,169.0,624.0
64598,1041.0,169.0,624.0
64599,1041.0,169.0,966.0
64600,1041.0,169.0,966.0
64601,1041.0,169.0,966.0
64602,1.0,400.0,966.0
64603,1041.0,400.0,966.0
64604,1041.0,400.0,966.0
64605,1041.0,400.0,966.0
64606,1041.0,400.0,1880.0
64607,1041.0,400.0,1880.0
64608,1041.0,400.0,1880.0
64609,1041.0,400.0,1880.0
64610,1041.0,400.0,1880.0
64611,1041.0,573.0,1880.0
64612,1041.0,573.0,2316.0
64613,1041.0,573.0,2316.0
64614,1041.0,573.0,2316.0
64615,1041.0,573.0,2316.0
64616,1041.0,573.0,2316.0
64617,1041.0,573.0,2316.0
64618,1041.0,573.0,2316.0
64619,1041.0,573.0,2316.0
64620,1041.0,573.0,2316.0
64621,1041.0,573.0,2316.0
64622,1041.0,573.0,2316.0
64623,1041.0,416.0,2316.0
64624,1041.0,416.0,2316.0
64625,1041.0,416.0,2316.0
64626,1041.0,416.0,2316.0
64627,1041.0,416.0,2316.0
64628,1041.0,416.0,2316.0
64629,1041.0,416.0,2316.0
64630,1041.0,416.0,2316.0
64631,1041.0,416.0,2316.0
64632,1041.0,416.0,2316.0
64633,1041.0,416.0,716.0
64634,10041.0,416.0,1330.0
64635,11041.0,578.0,1330.0
64636,1041.0,345.0,1330.0
64637,1041.0,345.0,1330.0
64638,1041.0,345.0,1330.0
64639,1041.0,345.0,1330.0
64640,1041.0,531.0,1330.0
64641,1041.0,210.0,1330.0
64642,1041.0,210.0,1330.0
64643,1041.0,297.0,1330.0
64644,1041.0,297.0,1072.0
64645,1041.0,297.0,1072.0
64646,1041.0,327.0,1046.0
64647,1041.0,271.0,1046.0
64648,1041.0,275.0,1046.0
64649,1041.0,275.0,1046.0
64650,1041.0,275.0,1046.0
64651,1041.0,275.0,1046.0
64652,1041.0,275.0,1046.0
64653,1041.0,275.0,1046.0
64654,1041.0,275.0,1046.0
64655,1041.0,123.0,1046.0
64656,1041.0,433.0,1046.0
64657,1041.0,433.0,1046.0
64658,1041.0,433.0,1046.0
64659,1041.0,58.0,1046.0
64660,1041.0,58.0,1046.0
64661,1041.0,58.0,1046.0
64662,1041.0,58.0,1046.0
64663,1041.0,58.0,1046.0
64664,104.0,128.0,434.0
64665,1041.0,136.0,434.0
64666,1041.0,136.0,434.0
66322,149.0,682.0,915.0
66323,181.0,682.0,915.0
66324,181.0,682.0,915.0
66325,8.0,682.0,915.0
66326,1811.0,682.0,602.0
66327,1.0,878.0,602.0
66328,181.0,950.0,602.0
66329,181.0,950.0,602.0
66330,181.0,1576.0,602.0
66331,181.0,1576.0,602.0
66332,181.0,1576.0,602.0
66333,181.0,1158.0,864.0
66334,181.0,1158.0,864.0
66335,181.0,1158.0,864.0
66336,181.0,1158.0,350.0
66337,181.0,1158.0,350.0
66338,181.0,1158.0,350.0
66339,181.0,718.0,599.0
66340,308.0,713.0,599.0
66341,308.0,713.0,599.0
66342,308.0,713.0,599.0
66343,3008.0,713.0,968.0
66344,3308.0,713.0,463.0
66345,308.0,713.0,463.0
66346,308.0,713.0,463.0
66347,87.0,674.0,463.0
66348,87.0,674.0,463.0
66349,87.0,1372.0,463.0
66350,87.0,1372.0,463.0
66351,87.0,935.0,463.0
66352,150.0,347.0,463.0
66353,150.0,347.0,463.0
66354,150.0,347.0,463.0
66355,150.0,347.0,463.0
66356,318.0,1484.0,463.0
66357,318.0,1484.0,463.0
66358,318.0,339.0,463.0
66359,318.0,544.0,463.0
66360,328.0,1081.0,463.0
66361,30.0,586.0,463.0
66362,328.0,586.0,463.0
66363,274.0,586.0,463.0
66364,181.0,583.0,463.0
66365,181.0,583.0,463.0
66366,181.0,583.0,832.0
66367,181.0,583.0,832.0
66368,236.0,583.0,832.0
66369,236.0,609.0,832.0
66370,236.0,609.0,832.0
66371,236.0,609.0,832.0
66372,236.0,1242.0,832.0
66373,236.0,1242.0,954.0
66374,236.0,1242.0,328.0
66375,236.0,583.0,328.0
66376,236.0,583.0,328.0
66377,205.0,583.0,328.0
66378,205.0,583.0,328.0
66379,205.0,538.0,328.0
66380,267.0,538.0,328.0
66381,267.0,766.0,328.0
66382,267.0,428.0,328.0
66383,267.0,428.0,328.0
66384,267.0,428.0,321.0
66385,267.0,428.0,321.0
66386,267.0,2420.0,321.0
66387,267.0,2420.0,321.0
66388,232.0,2420.0,240.0
66389,125.0,2420.0,240.0
66390,125.0,2420.0,240.0
66391,125.0,2420.0,240.0
66392,125.0,2420.0,240.0
66393,125.0,2420.0,240.0
66394,125.0,2420.0,541.0
66395,125.0,2420.0,541.0
66396,125.0,725.0,541.0
66397,125.0,725.0,541.0
66398,125.0,725.0,541.0
66399,184.0,725.0,541.0
66400,184.0,725.0,541.0
66401,184.0,725.0,541.0
66402,184.0,725.0,541.0
66403,184.0,725.0,541.0
66404,156.0,725.0,541.0
66405,156.0,725.0,541.0
66406,156.0,725.0,541.0
66407,156.0,725.0,541.0
66408,156.0,1048.0,541.0
66409,156.0,1048.0,541.0
66410,68.0,1048.0,541.0
66411,68.0,1048.0,541.0
66412,68.0,1048.0,541.0
66413,68.0,1048.0,541.0
66414,285.0,1048.0,541.0
66415,98.0,1048.0,541.0
66416,372.0,1116.0,541.0
66417,372.0,1116.0,541.0
66418,372.0,1116.0,541.0
66419,372.0,1116.0,318.0
66420,372.0,1116.0,318.0
66421,372.0,1116.0,318.0
66422,64.0,835.0,318.0
66423,236.0,835.0,318.0
66424,236.0,835.0,318.0
66425,236.0,835.0,318.0
66426,236.0,835.0,318.0
66427,236.0,232.0,318.0
66428,236.0,232.0,318.0
66429,236.0,232.0,318.0
66430,236.0,232.0,537.0
66431,236.0,232.0,537.0
66432,236.0,1031.0,904.0
66433,236.0,1031.0,904.0
66434,236.0,1031.0,467.0
66435,236.0,1031.0,467.0
66436,236.0,1031.0,467.0
66437,236.0,1031.0,467.0
66438,236.0,1031.0,467.0
66439,236.0,1018.0,824.0
66440,236.0,1018.0,824.0
68020,1710.0,346.0,2468.0
68021,1710.0,346.0,2468.0
68022,1710.0,346.0,2468.0
68023,1710.0,346.0,2468.0
68024,1710.0,346.0,2468.0
68025,1710.0,346.0,2468.0
68026,1710.0,346.0,2468.0
68027,1710.0,346.0,2468.0
68028,1710.0,346.0,2468.0
68029,1710.0,346.0,2468.0
68030,1710.0,346.0,2468.0
68031,1710.0,346.0,2468.0
68032,1711710.0,346.0,1275.0
68033,1710.0,346.0,1275.0
68034,1710.0,346.0,1275.0
68035,1710.0,346.0,1275.0
68036,1710.0,346.0,1275.0
68037,1710.0,346.0,1275.0
68038,1710.0,346.0,1275.0
68039,1710.0,346.0,1275.0
68040,2041.0,346.0,1932.0
68041,2041.0,665.0,1932.0
68042,2041.0,665.0,1932.0
68043,2041.0,665.0,1932.0
68044,21119.0,665.0,1932.0
68045,1119.0,665.0,1932.0
68046,2315.0,665.0,1932.0
68047,2315.0,665.0,1932.0
68048,2315.0,665.0,1932.0
68049,2315.0,665.0,1932.0
68050,2315.0,665.0,3188.0
68051,2315.0,665.0,3188.0
68052,1370.0,665.0,3188.0
68053,1370.0,665.0,3188.0
68054,1370.0,665.0,3188.0
68055,1370.0,665.0,3188.0
68056,1370.0,665.0,3188.0
68057,1370.0,665.0,3188.0
68058,1370.0,665.0,630.0
68059,1370.0,665.0,630.0
68060,1370.0,686.0,630.0
68061,1370.0,686.0,630.0
68062,1370.0,686.0,630.0
68063,1300.0,686.0,630.0
68064,1370.0,686.0,1352.0
68065,1370.0,686.0,1352.0
68066,1370.0,686.0,1352.0
68067,131370.0,686.0,1352.0
68068,1370.0,686.0,3286.0
68069,1370.0,686.0,3286.0
68070,1370.0,686.0,2216.0
68071,1370.0,686.0,2216.0
68072,1370.0,686.0,2990.0
68073,1370.0,686.0,3761.0
68074,70.0,686.0,3761.0
68075,13370.0,686.0,3761.0
68076,1370.0,686.0,3761.0
68077,1370.0,686.0,3761.0
68078,1370.0,686.0,3761.0
68079,1370.0,686.0,3761.0
68080,1370.0,686.0,3761.0
68081,1370.0,686.0,3761.0
68082,1370.0,686.0,3761.0
68083,1370.0,686.0,3761.0
68084,1370.0,686.0,3331.0
68085,1370.0,686.0,3331.0
68086,752.0,686.0,3331.0
68087,752.0,686.0,3331.0
68088,752.0,686.0,3331.0
68089,752.0,686.0,3331.0
68090,752.0,686.0,3331.0
68091,752.0,686.0,3331.0
68092,2329.0,686.0,3331.0
68093,2329.0,686.0,3331.0
68094,1426.0,686.0,3331.0
68095,1426.0,686.0,3331.0
68096,1640.0,686.0,3331.0
68097,1640.0,686.0,3331.0
68098,1640.0,686.0,1300.0
68099,1640.0,686.0,1300.0
68100,1640.0,686.0,1300.0
68101,1640.0,686.0,1300.0
68102,1640.0,686.0,1300.0
68103,1640.0,686.0,1300.0
68104,1640.0,686.0,1300.0
68105,1640.0,686.0,1300.0
68106,1640.0,686.0,1300.0
68107,1640.0,686.0,1300.0
68108,1253.0,686.0,1300.0
68109,1730.0,686.0,1300.0
68110,1730.0,686.0,1300.0
68111,1730.0,686.0,1300.0
68112,1730.0,686.0,1300.0
68113,1730.0,686.0,1300.0
68114,1730.0,686.0,1300.0
68115,1730.0,686.0,1300.0
68116,1730.0,686.0,1300.0
68117,1730.0,686.0,1300.0
68118,1730.0,686.0,1300.0
68119,1730.0,686.0,1300.0
68120,1730.0,686.0,1300.0
68121,2176.0,686.0,1300.0
68122,2176.0,686.0,1300.0
68123,987.0,686.0,1300.0
68124,987.0,686.0,1300.0
68125,1324.0,686.0,1300.0
68126,1324.0,686.0,2331.0
68127,1324.0,686.0,2331.0
68128,1206.0,686.0,2331.0
68129,1206.0,686.0,2331.0
68130,2118.0,686.0,2331.0
68131,1335.0,686.0,2331.0
68132,1335.0,686.0,2331.0
68133,1335.0,686.0,2331.0
68134,1335.0,686.0,2331.0
68135,1465.0,686.0,2331.0
68136,1939.0,686.0,2331.0
68137,229.0,686.0,2331.0
68138,1939939.0,686.0,1961.0
68139,1939.0,686.0,1961.0
68140,1939.0,686.0,1961.0
68141,1939.0,686.0,1961.0
68142,1939.0,686.0,2810.0
68143,1939.0,686.0,2810.0
68144,1939.0,441.0,2810.0
68145,1939.0,441.0,2810.0
68146,1939.0,441.0,2810.0
68147,1939.0,441.0,2810.0
68148,1939.0,441.0,2810.0
68149,1939.0,441.0,2306.0
68150,1939.0,441.0,2306.0
68151,1939.0,441.0,2306.0
68152,1939.0,441.0,2306.0
68153,1939.0,441.0,5028.0
68154,692.0,441.0,5028.0
68155,914.0,441.0,5028.0
68156,914.0,441.0,5028.0
69881,15856.0,2192.0,354.0
69882,11856.0,2192.0,354.0
69883,1856.0,2192.0,354.0
69884,1856.0,2192.0,354.0
69885,1856.0,2192.0,354.0
69886,1856.0,1885.0,354.0
69887,1856.0,1885.0,354.0
69888,1856.0,1885.0,354.0
69889,1856.0,1885.0,354.0
69890,1856.0,1885.0,354.0
69891,1856.0,1885.0,354.0
69892,1856.0,1885.0,354.0
69893,1856.0,2739.0,354.0
69894,1856.0,2739.0,354.0
69895,1856.0,2739.0,354.0
69896,1856.0,2739.0,354.0
69897,1046.0,2739.0,354.0
69898,1046.0,2739.0,354.0
