timestamp,emg1,emg2,emg3
1372,3274.0,2894.0,2024.0
1373,3380.0,2894.0,2024.0
1374,4155.0,2894.0,2024.0
1375,4155.0,2894.0,2024.0
1376,4155.0,2894.0,2024.0
1377,4155.0,2894.0,2024.0
1378,4155.0,2894.0,2024.0
1379,6283.0,2894.0,2024.0
1380,6283.0,2894.0,2024.0
1381,6283.0,2894.0,2024.0
1382,6283.0,2894.0,2024.0
1383,6283.0,2894.0,2024.0
1384,4750.0,2894.0,2024.0
1385,4750.0,2894.0,2024.0
1386,4750.0,2894.0,2024.0
1387,3870.0,2894.0,2024.0
1388,3870.0,2894.0,2024.0
1389,3870.0,2894.0,2024.0
1390,3870.0,2894.0,2024.0
1391,4068.0,2894.0,2024.0
1392,2752.0,2453.0,2024.0
1393,2752.0,2453.0,2024.0
1394,2752.0,2453.0,2024.0
1395,2752.0,2453.0,2024.0
1396,3555.0,2453.0,1586.0
1397,3555.0,2277.0,1586.0
1398,6181.0,2277.0,1586.0
1399,6181.0,2277.0,1586.0
1400,2370.0,2277.0,1586.0
1401,2370.0,2277.0,1586.0
1402,2111.0,2277.0,1586.0
1403,3138.0,2277.0,2984.0
1404,3138.0,2277.0,2984.0
1405,3793.0,2277.0,2984.0
1406,3764.0,2277.0,2984.0
1407,3764.0,2277.0,2984.0
1408,3764.0,2277.0,2984.0
1409,4657.0,2277.0,2984.0
1410,4657.0,2277.0,2984.0
1411,350200.0,2457.0,2984.0
1412,3502.0,1628.0,2984.0
1413,3502.0,3814.0,2984.0
1414,3502.0,3814.0,2984.0
1415,3502.0,3587.0,2984.0
1416,3502.0,1673.0,2984.0
1417,6596.0,1673.0,2984.0
1418,4485.0,1622.0,2984.0
1419,4485.0,1561.0,2984.0
1420,4485.0,1561.0,2984.0
1421,3743.0,4693.0,1358.0
1422,3743.0,4693.0,1358.0
1423,3743.0,4693.0,1358.0
1424,3743.0,4693.0,1358.0
1425,3743.0,2194.0,1358.0
1426,3743.0,2194.0,6483.0
1427,3743.0,2194.0,6483.0
1428,4798.0,2194.0,3020.0
1429,4798.0,2194.0,3020.0
1430,4798.0,3152.0,3020.0
1431,4798.0,3152.0,3020.0
1432,2402.0,3152.0,3020.0
1433,2402.0,3152.0,3020.0
1434,2402.0,2987.0,3020.0
1435,2402.0,2987.0,3020.0
1436,2402.0,3672.0,3020.0
1437,2402.0,2362.0,3020.0
1438,4231.0,2362.0,4958.0
1439,4231.0,2362.0,2584.0
1440,4231.0,2362.0,1371.0
1441,4231.0,2362.0,1371.0
1442,4726.0,2537.0,1371.0
1443,4726.0,2537.0,1371.0
1444,4726.0,2655.0,1371.0
1445,4726.0,2029.0,2098.0
1446,4726.0,2029.0,2098.0
1447,4726.0,2029.0,3088.0
1448,4726.0,2029.0,2989.0
1449,4726.0,2029.0,2989.0
1450,4726.0,2029.0,2989.0
1451,4726.0,1962.0,2989.0
1452,6.0,1962.0,2989.0
1453,4726.0,1962.0,3657.0
1454,4726.0,1962.0,3657.0
1455,4726.0,1962.0,3657.0
1456,2120.0,1962.0,3657.0
1457,2120.0,1962.0,3657.0
1458,2120.0,4278.0,3657.0
1459,2120.0,4278.0,3657.0
1460,2120.0,2954.0,3657.0
1461,2120.0,2954.0,3657.0
1462,2120.0,2954.0,3657.0
1463,2120.0,2954.0,3657.0
1464,2120.0,2954.0,3657.0
1465,2120.0,2954.0,3657.0
1466,2120.0,2954.0,3657.0
1467,4814.0,2954.0,4918.0
1468,4814.0,2954.0,4918.0
1469,4462.0,2954.0,4918.0
1470,4462.0,2954.0,4918.0
1471,4462.0,2954.0,4918.0
1472,1591.0,2954.0,4918.0
1473,1591.0,2954.0,4918.0
1474,1591.0,2954.0,4918.0
1475,1591.0,2954.0,4918.0
1476,1591.0,2954.0,4918.0
1477,4670.0,2954.0,1866.0
1478,4670.0,2954.0,1866.0
1479,447200.0,2954.0,1866.0
1480,3465.0,2954.0,1866.0
1481,3465.0,2954.0,2109.0
1482,34.0,2954.0,2109.0
1483,3465.0,2954.0,2109.0
1484,3465.0,1450.0,2109.0
1485,34665.0,2746.0,2109.0
1486,3465.0,2746.0,2109.0
3219,6719.0,3630.0,3279.0
3220,5481.0,3630.0,3279.0
3221,5481.0,3630.0,3279.0
3222,5481.0,3630.0,3279.0
3223,5481.0,3630.0,3279.0
3224,5481.0,3630.0,4227.0
3225,9844.0,3630.0,4227.0
3226,9844.0,3630.0,4227.0
3227,9844.0,3630.0,4227.0
3228,9844.0,3630.0,4227.0
3229,9844.0,3630.0,4227.0
3230,9844.0,3630.0,4227.0
3231,9844.0,4723.0,4227.0
3232,9844.0,4723.0,4227.0
3233,9844.0,4723.0,1581.0
3234,9844.0,4723.0,1581.0
3235,60.0,4723.0,1581.0
3236,5039.0,4723.0,1581.0
3237,5039.0,4723.0,1581.0
3238,5039.0,4723.0,1581.0
3239,5039.0,4723.0,1581.0
3240,5039.0,3624.0,1581.0
3241,5039.0,3624.0,1581.0
3242,5039.0,3624.0,2250.0
3243,5039.0,3624.0,2250.0
3244,5039.0,3403.0,2250.0
3245,939.0,3403.0,2250.0
3246,50039.0,3403.0,2250.0
3247,5039.0,3403.0,2250.0
3248,5039.0,3403.0,4217.0
3249,5039.0,3403.0,4217.0
3250,5039.0,3403.0,4217.0
3251,4055.0,3403.0,2074.0
3252,3181.0,3403.0,2074.0
3253,3181.0,3403.0,2074.0
3254,3181.0,3403.0,2074.0
3255,3181.0,3403.0,2074.0
3256,3181.0,3403.0,2074.0
3257,3181.0,3403.0,2074.0
3258,3181.0,3403.0,2074.0
3259,3181.0,3403.0,3645.0
3260,3181.0,4945.0,1699.0
3261,3181.0,4945.0,1699.0
3262,3181.0,4945.0,1699.0
3263,3181.0,4945.0,1699.0
3264,3181.0,4945.0,1699.0
3265,3181.0,4945.0,1699.0
3266,3181.0,4945.0,4668.0
3267,3181.0,4945.0,4668.0
3268,3181.0,4286.0,4668.0
3269,3181.0,4286.0,4668.0
3270,3181.0,4286.0,4668.0
3271,3181.0,4286.0,4668.0
3272,3181.0,4286.0,4668.0
3273,3181.0,4286.0,4668.0
3274,3181.0,4286.0,4668.0
3275,3181.0,4286.0,4668.0
3276,3181.0,4286.0,4668.0
3277,31810.0,4286.0,4668.0
3278,3181.0,3453.0,4668.0
3279,3181.0,3453.0,4668.0
3280,3181.0,3453.0,4668.0
3281,2664.0,3453.0,4668.0
3282,2664.0,3453.0,4668.0
3283,4575.0,3453.0,4668.0
3284,4575.0,3453.0,4668.0
3285,4892.0,4238.0,4668.0
3286,4892.0,4238.0,4668.0
3287,4892.0,5215.0,4668.0
3288,4892.0,5215.0,4668.0
3289,5025.0,5215.0,4668.0
3290,5025.0,5215.0,4668.0
3291,5025.0,5215.0,4668.0
3292,5327.0,5215.0,2160.0
3293,5327.0,5215.0,2160.0
3294,5327.0,5215.0,2160.0
3295,5327.0,5215.0,2256.0
3296,5327.0,5215.0,2256.0
3297,5327.0,4123.0,2256.0
3298,5327.0,4123.0,2256.0
3299,5327.0,4123.0,2256.0
3300,5327.0,1469.0,2256.0
3301,5327.0,2923.0,2256.0
3302,5327.0,2923.0,2256.0
3303,3515.0,2923.0,3605.0
3304,3515.0,2923.0,3605.0
3305,3515.0,2923.0,3605.0
3306,3515.0,4245.0,3605.0
3307,3515.0,2603.0,3605.0
3308,3515.0,2603.0,3605.0
3309,3515.0,2603.0,1568.0
3310,3515.0,2603.0,1568.0
3311,3515.0,4443.0,1568.0
3312,3515.0,4443.0,1568.0
3313,3515.0,4443.0,2694.0
3314,3515.0,4443.0,2694.0
3315,3515.0,2466.0,2694.0
3316,3515.0,2466.0,2694.0
3317,3515.0,2466.0,2694.0
3318,3515.0,2466.0,2694.0
3319,15.0,2466.0,2694.0
3320,35515.0,2466.0,2694.0
3321,3515.0,2466.0,2694.0
3322,3515.0,2466.0,2694.0
3323,2009.0,2466.0,2694.0
3324,2009.0,4388.0,2694.0
3325,2009.0,4388.0,2694.0
3326,2009.0,4388.0,2694.0
3327,2009.0,4388.0,2694.0
3328,2009.0,1670.0,2694.0
3329,2009.0,1670.0,2694.0
3330,2009.0,1670.0,2694.0
3331,2009.0,5189.0,2694.0
3332,2009.0,5189.0,2694.0
3333,2943.0,5189.0,2186.0
3334,2943.0,5189.0,2186.0
3335,2943.0,5189.0,2186.0
3336,2943.0,5348.0,2186.0
3337,2943.0,5348.0,2186.0
3338,2943.0,3096.0,2186.0
3339,2943.0,3096.0,2186.0
3340,4408.0,3096.0,1772.0
3341,4408.0,3096.0,1772.0
3342,6167.0,3096.0,1772.0
3343,6167.0,3096.0,1772.0
3344,6167.0,3096.0,1772.0
3345,5223.0,3096.0,1772.0
3346,5223.0,3096.0,1772.0
3347,5223.0,3096.0,1772.0
3348,5223.0,3096.0,1772.0
3349,5223.0,3096.0,1772.0
3350,5223.0,3096.0,1772.0
3351,5223.0,3096.0,1772.0
3352,5223.0,3096.0,1772.0
3353,5223.0,3096.0,1772.0
3354,5223.0,3096.0,1772.0
3355,5223.0,3096.0,1923.0
3356,5223.0,2523.0,1923.0
3357,5223.0,2523.0,4307.0
3358,5223.0,2523.0,4307.0
3359,5223.0,2523.0,4307.0
3662,424.0,1838424.0,1838.0
3663,965.0,392100.0,3921.0
4473,1392.0,3858.0,4318.0
4474,1392.0,3858.0,4318.0
4475,1392.0,3858.0,4318.0
4476,1392.0,3292.0,4318.0
4477,1392.0,3292.0,4318.0
4478,1392.0,3292.0,4318.0
4479,1392.0,3292.0,4318.0
4480,1392.0,3292.0,4318.0
4481,1392.0,3292.0,4318.0
4482,1392.0,3292.0,4318.0
4483,1392.0,3292.0,4318.0
4484,1392.0,3292.0,4318.0
4485,1392.0,3292.0,4318.0
4486,1392.0,3292.0,4318.0
4487,1833.0,3292.0,4318.0
4488,1925.0,3292.0,4318.0
4489,1540.0,3292.0,4318.0
4490,1540.0,3292.0,4318.0
4491,1540.0,2321.0,4318.0
4492,1540.0,2321.0,4318.0
4493,1540.0,2321.0,4318.0
4494,1540.0,2321.0,4318.0
4495,1540.0,2321.0,4318.0
4496,1540.0,2321.0,4318.0
4497,1540.0,2321.0,4318.0
4498,1540.0,2321.0,4318.0
4499,1540.0,2321.0,4318.0
4500,1540.0,2321.0,4318.0
4501,1540.0,2321.0,4318.0
4502,1540.0,2321.0,4318.0
4503,1540.0,2321.0,4318.0
4504,1540.0,2321.0,4318.0
4505,1540.0,2321.0,4318.0
4506,1540.0,2321.0,4318.0
4507,1540.0,2321.0,4318.0
4508,1540.0,2321.0,4318.0
4509,1540.0,2244.0,2386.0
4510,1540.0,2244.0,2386.0
4511,1540.0,2244.0,2386.0
4512,1540.0,2244.0,2386.0
4513,1540.0,2244.0,2386.0
4514,1540.0,1400.0,2386.0
4515,1540.0,1400.0,2386.0
4516,1540.0,1400.0,2386.0
4517,1540.0,1400.0,2386.0
4518,1040.0,1400.0,2386.0
4519,1040.0,1400.0,2386.0
4520,1040.0,1400.0,2386.0
4521,1040.0,2668.0,2386.0
4522,1040.0,1449.0,2386.0
4523,1040.0,1449.0,2386.0
4524,1040.0,1449.0,2386.0
4525,2363.0,1449.0,2386.0
4526,2363.0,1449.0,2386.0
4527,2363.0,1353.0,2386.0
4528,2363.0,1353.0,2386.0
4529,2363.0,5072.0,2386.0
4530,2363.0,4008.0,2386.0
4531,2363.0,4008.0,2386.0
4532,2363.0,4008.0,2386.0
4533,2363.0,4008.0,2386.0
4534,2363.0,984.0,2386.0
4535,2363.0,1196.0,2386.0
4536,2363.0,1196.0,2386.0
4537,2363.0,1196.0,2386.0
4538,2363.0,1196.0,2386.0
4539,2363.0,1196.0,2386.0
4540,2363.0,1803.0,2386.0
4541,2363.0,1803.0,2386.0
4542,2363.0,1803.0,2386.0
4543,2363.0,4753.0,2386.0
4544,2363.0,2236.0,2386.0
4545,2363.0,3987.0,2386.0
4546,2363.0,3987.0,2386.0
4547,2363.0,4346.0,2386.0
4548,2363.0,2802.0,2386.0
4549,2363.0,3983.0,2386.0
4550,2363.0,3983.0,2386.0
4551,2363.0,3983.0,2386.0
4552,2363.0,3983.0,2386.0
4553,2363.0,3983.0,2386.0
4554,2363.0,3983.0,2386.0
4555,2363.0,3983.0,2386.0
4556,2363.0,3983.0,2386.0
4557,2363.0,3983.0,2386.0
4558,2363.0,3983.0,2386.0
4559,2363.0,4402.0,2386.0
4560,2363.0,4402.0,2386.0
4561,2363.0,4402.0,2386.0
4562,2363.0,1720.0,2386.0
4563,200.0,1720.0,2386.0
4564,2363.0,1720.0,2386.0
4565,2363.0,1720.0,2386.0
4566,2363.0,1720.0,2386.0
4567,2363.0,3400.0,2386.0
4568,2363.0,3400.0,2386.0
4569,2363.0,3400.0,2386.0
4570,2363.0,3400.0,2386.0
4571,2363.0,3400.0,2386.0
4572,2363.0,3400.0,2386.0
4573,2363.0,3400.0,2386.0
4574,2363.0,3400.0,2386.0
4575,2363.0,3400.0,2386.0
4576,2363.0,3400.0,2386.0
4577,2363.0,3400.0,2386.0
4578,2363.0,2335.0,2386.0
4579,2363.0,2335.0,2386.0
4580,2363.0,2335.0,2386.0
4581,2363.0,2335.0,2386.0
4582,2363.0,2335.0,2386.0
4583,2363.0,2335.0,2386.0
4584,2363.0,2335.0,2386.0
4585,2363.0,2335.0,2386.0
4586,2363.0,3187.0,2386.0
4587,2363.0,3187.0,2386.0
4588,2363.0,3187.0,2386.0
4589,2363.0,3187.0,2386.0
4590,2363.0,3187.0,2386.0
4591,2363.0,3187.0,2386.0
4592,2363.0,3187.0,2386.0
4593,2363.0,3187.0,2386.0
4594,2363.0,3187.0,2386.0
4595,2363.0,3656.0,2386.0
4596,2363.0,3656.0,2386.0
4597,2363.0,3656.0,2386.0
4598,2363.0,3656.0,2386.0
4599,2363.0,3656.0,2386.0
4600,2363.0,4409.0,2386.0
4601,2363.0,4409.0,2386.0
4602,2363.0,4409.0,2386.0
4603,2363.0,4409.0,5279.0
4604,2363.0,4409.0,5279.0
6247,784.0,5694.0,2976.0
6248,183.0,5694.0,2976.0
6249,183.0,5694.0,2976.0
6250,183.0,5694.0,2976.0
6251,183.0,5694.0,2976.0
6252,846.0,5694.0,2976.0
6253,846.0,5694.0,2976.0
6254,753.0,5694.0,2976.0
6255,753.0,5694.0,2976.0
6256,1150.0,5694.0,2976.0
6257,1150.0,5694.0,2976.0
6258,1150.0,5694.0,2976.0
6259,1150.0,5694.0,2976.0
6260,550.0,5694.0,2976.0
6261,111150.0,2594.0,2976.0
6262,1150.0,2594.0,2976.0
6263,1150.0,2594.0,2976.0
6264,1150.0,3711.0,2976.0
6265,1150.0,3711.0,2976.0
6266,1150.0,3664.0,2976.0
6267,186.0,3664.0,2976.0
6268,1021.0,3664.0,2976.0
6269,11.0,3664.0,2976.0
6270,10211021.0,3664.0,2976.0
6271,1021.0,3664.0,2976.0
6272,1021.0,3664.0,2976.0
6273,1021.0,3664.0,2976.0
6274,1021.0,3664.0,2976.0
6275,1021.0,3664.0,2525.0
6276,1021.0,3664.0,2525.0
6277,1021.0,3355.0,2525.0
6278,1021.0,3355.0,2525.0
6279,1021.0,3355.0,2525.0
6280,1021.0,3355.0,2525.0
6281,1021.0,3355.0,2525.0
6282,1021.0,3355.0,1036.0
6283,320606.0,3355.0,1036.0
6284,803.0,3355.0,1036.0
6285,803.0,3355.0,1036.0
6286,556.0,3355.0,1036.0
6287,556.0,3355.0,1036.0
6288,1262.0,3355.0,2282.0
6289,1262.0,3355.0,1051.0
6290,1262.0,3355.0,1051.0
6291,1262.0,3355.0,1051.0
6292,1262.0,3355.0,710.0
6293,1262.0,3355.0,710.0
6294,1262.0,3355.0,710.0
6295,1262.0,3355.0,710.0
6296,1262.0,3172.0,1435.0
6297,1262.0,3172.0,1435.0
6298,1262.0,3172.0,1435.0
6299,1262.0,5217.0,1435.0
6300,1262.0,5217.0,1435.0
6301,1262.0,5217.0,1435.0
6302,1262.0,5217.0,1435.0
6303,1262.0,5217.0,1435.0
6304,1262.0,5217.0,1435.0
6305,1262.0,5217.0,1435.0
6306,1262.0,5217.0,1435.0
6307,1262.0,2115.0,1435.0
6308,1262.0,2115.0,1435.0
6309,1262.0,2115.0,1435.0
6310,1262.0,2115.0,1435.0
6311,1262.0,2115.0,1435.0
6312,1262.0,2115.0,1435.0
6313,1262.0,2115.0,1435.0
6314,1262.0,2115.0,1435.0
6315,1262.0,2115.0,1654.0
6316,1262.0,2115.0,1654.0
6317,1262.0,2115.0,1654.0
6318,1262.0,2115.0,1815.0
6319,1262.0,2115.0,1815.0
6320,1262.0,2115.0,1815.0
6321,1262.0,2115.0,1815.0
6322,1262.0,2115.0,1815.0
6323,1262.0,2115.0,1815.0
6324,709.0,2115.0,2278.0
6325,709.0,2115.0,2278.0
6326,709.0,2115.0,2278.0
6327,709.0,4549.0,2278.0
6328,709.0,4549.0,2278.0
6329,709.0,4549.0,735.0
6330,709.0,4549.0,735.0
6331,7099.0,4549.0,2578.0
6332,709.0,4549.0,1491.0
6333,709.0,4549.0,1491.0
6334,227.0,4549.0,1491.0
6335,227.0,4549.0,1491.0
6336,227.0,4549.0,1491.0
6337,227.0,4549.0,1491.0
6338,227.0,4549.0,1491.0
6339,227.0,4549.0,1491.0
6340,227.0,4549.0,1491.0
6341,22727.0,4549.0,1491.0
6342,2227.0,4549.0,1491.0
6343,227.0,4549.0,1491.0
6344,227.0,4549.0,1491.0
6345,227.0,4549.0,1491.0
6346,227.0,4549.0,1491.0
6347,227.0,4549.0,871.0
6348,227.0,4549.0,871.0
6349,227.0,4549.0,1341.0
6350,227.0,4549.0,1341.0
6351,227.0,4549.0,1341.0
6352,227.0,4549.0,1341.0
6353,227.0,3224.0,1341.0
6354,227.0,3224.0,1341.0
6355,227.0,3224.0,1341.0
6356,227.0,3224.0,1341.0
6357,227.0,3224.0,1341.0
6358,227.0,3224.0,1341.0
6359,227.0,3224.0,1341.0
6360,227.0,3224.0,1341.0
6361,227.0,3224.0,1341.0
6362,227.0,3224.0,2460.0
6363,227.0,3224.0,2460.0
6364,227.0,4235.0,1771.0
6365,227.0,4235.0,1771.0
6366,227.0,4235.0,1771.0
6367,22.0,4235.0,1771.0
6368,227.0,4235.0,1771.0
6369,227.0,4235.0,1771.0
6370,227.0,4235.0,1771.0
6371,227.0,4235.0,1771.0
6372,213.0,4235.0,1771.0
6373,630.0,4235.0,1771.0
6374,720.0,4235.0,1771.0
6375,720.0,4235.0,1771.0
6376,675.0,4235.0,1771.0
6377,288.0,4235.0,1771.0
6378,8.0,4235.0,1771.0
8098,768.0,4307768.0,4307.0
8099,768.0,5431.0,1839.0
8100,528.0,2049.0,1839.0
8101,528.0,2049.0,1360.0
8102,528.0,2049.0,1360.0
8103,186.0,2049.0,1360.0
8104,186.0,2049.0,1360.0
8105,1115.0,2049.0,1360.0
8106,1115.0,3536.0,1360.0
8107,1115.0,3536.0,1360.0
8108,1115.0,5892.0,1360.0
8109,1115.0,5892.0,1360.0
8110,1115.0,3677.0,1360.0
8111,1115.0,2757.0,1360.0
8112,1115.0,2877.0,1360.0
8113,1115.0,3406.0,1360.0
8114,1115.0,4006.0,1360.0
8115,1115.0,1587.0,1360.0
8116,671.0,1587.0,1360.0
8117,467.0,1587.0,1360.0
8118,67.0,1995.0,1360.0
8119,4467.0,1995.0,1360.0
8120,467.0,1162.0,1360.0
8121,467.0,1162.0,1360.0
8122,315.0,1933.0,1360.0
8123,346.0,1933.0,1360.0
8124,346.0,1933.0,1360.0
8125,539.0,1933.0,1360.0
8126,474.0,1933.0,1360.0
8127,721.0,1933.0,1360.0
8128,754.0,1933.0,1360.0
8129,754.0,2849.0,1360.0
8130,754.0,2849.0,1360.0
8131,694.0,2849.0,1360.0
8132,11090.0,2849.0,1695.0
8133,1090.0,2849.0,1695.0
8134,1090.0,2849.0,1695.0
8135,1090.0,2849.0,1883.0
8136,1090.0,2062.0,640.0
8137,1090.0,2062.0,640.0
8138,1090.0,2062.0,640.0
8139,1090.0,2062.0,640.0
8140,1090.0,2062.0,640.0
8141,542.0,2062.0,640.0
8142,42.0,2702.0,640.0
8143,703.0,2702.0,640.0
8144,703.0,3183.0,640.0
8145,5.0,3183.0,1378.0
8146,838.0,3183.0,1378.0
8147,838.0,3183.0,1378.0
8148,838.0,2643.0,1378.0
8149,838.0,2643.0,1378.0
8150,838.0,1402.0,1378.0
8151,838.0,1402.0,1378.0
8152,838.0,1743.0,1378.0
8153,838.0,1743.0,1737.0
8154,838.0,1743.0,1737.0
8155,838.0,1743.0,1629.0
8156,455.0,3884.0,1629.0
8157,455.0,3453.0,1629.0
8158,455.0,2569.0,1128.0
8159,455.0,2569.0,879.0
8160,455.0,2569.0,879.0
8161,455.0,2569.0,879.0
8162,455.0,2569.0,879.0
8163,455.0,2614.0,879.0
8164,455.0,2614.0,879.0
8165,455.0,2614.0,879.0
8166,455.0,2614.0,879.0
8167,455.0,2614.0,879.0
8168,876.0,2614.0,879.0
8169,876.0,2614.0,879.0
8170,876.0,2614.0,879.0
8171,8766.0,2614.0,879.0
8172,876.0,2614.0,879.0
8173,876.0,2614.0,879.0
8174,1166.0,2614.0,879.0
8175,485.0,2614.0,879.0
8176,485.0,2614.0,879.0
8177,485.0,2614.0,879.0
8178,485.0,2614.0,879.0
8179,485.0,2614.0,879.0
8180,523.0,2614.0,879.0
8181,523.0,2614.0,879.0
8182,501.0,2614.0,879.0
8183,501.0,2614.0,879.0
8184,501.0,2614.0,2138.0
8185,501.0,2614.0,2138.0
8186,501.0,2614.0,2138.0
8187,501.0,2614.0,2138.0
8188,870.0,2614.0,2138.0
8189,501.0,2614.0,2138.0
8190,501.0,2614.0,2138.0
8191,501.0,2614.0,2138.0
8192,501.0,3024.0,2138.0
8193,501.0,3024.0,2138.0
8194,501.0,3024.0,2138.0
8195,501.0,3024.0,2138.0
8196,501.0,3024.0,2138.0
8197,501.0,3024.0,2138.0
8198,501.0,3024.0,2138.0
8199,260.0,3024.0,2138.0
8200,260.0,3024.0,2138.0
8201,260.0,3024.0,2138.0
8202,260.0,3024.0,2138.0
8203,260.0,3024.0,2138.0
8204,436.0,3024.0,2138.0
8205,436.0,3024.0,2138.0
8206,1221.0,3024.0,2138.0
8207,1221.0,3024.0,2138.0
8208,1221.0,3024.0,2138.0
8209,1221.0,3024.0,2138.0
8210,1221.0,3024.0,2138.0
8211,1221.0,3024.0,2138.0
9850,442.0,444.0,733.0
9851,442.0,444.0,733.0
9852,442.0,444.0,733.0
9853,442.0,444.0,733.0
9854,442.0,444.0,733.0
9855,442.0,444.0,733.0
9856,442.0,444.0,958.0
9857,442.0,444.0,958.0
9858,442.0,444.0,707.0
9859,442.0,444.0,707.0
9860,399.0,444.0,707.0
9861,399.0,444.0,707.0
9862,399.0,444.0,707.0
9863,399.0,444.0,707.0
9864,399.0,444.0,707.0
9865,399.0,230.0,707.0
9866,399.0,230.0,707.0
9867,399.0,229.0,707.0
9868,480.0,229.0,707.0
9869,496.0,360.0,707.0
9870,154.0,360.0,707.0
9871,139.0,154.0,707.0
9872,139.0,154.0,707.0
9873,139.0,154.0,707.0
9874,139.0,154.0,707.0
9875,139.0,154.0,707.0
9876,390.0,154.0,707.0
9877,390.0,154.0,707.0
9878,214.0,154.0,707.0
9879,214.0,154.0,707.0
9880,214.0,368.0,707.0
9881,214.0,368.0,707.0
9882,214.0,368.0,707.0
9883,214.0,368.0,469.0
9884,214.0,368.0,469.0
9885,446.0,368.0,469.0
9886,446.0,368.0,469.0
9887,446.0,260.0,469.0
9888,446.0,260.0,1629.0
9889,446.0,260.0,1605.0
9890,446.0,260.0,1260.0
9891,446.0,260.0,397.0
9892,446.0,260.0,397.0
9893,300.0,260.0,397.0
9894,300.0,260.0,1141.0
9895,300.0,260.0,1141.0
9896,395.0,260.0,1141.0
9897,395.0,260.0,1141.0
9898,395.0,260.0,1141.0
9899,395.0,260.0,1141.0
9900,395.0,260.0,1141.0
9901,600.0,260.0,1141.0
9902,600.0,260.0,1096.0
9903,172.0,260.0,1096.0
9904,172.0,260.0,1096.0
9905,172.0,260.0,555.0
9906,172.0,179.0,719.0
9907,172.0,179.0,965.0
9908,172.0,239.0,1572.0
9909,386.0,239.0,1572.0
9910,386.0,239.0,1572.0
9911,386.0,239.0,1572.0
9912,386.0,239.0,1315.0
9913,196.0,239.0,1315.0
9914,495.0,239.0,1315.0
9915,573.0,239.0,1315.0
9916,573.0,239.0,1315.0
9917,573.0,239.0,1315.0
9918,182.0,215.0,579.0
9919,182.0,215.0,879.0
9920,182.0,215.0,879.0
9921,509.0,215.0,879.0
9922,300.0,215.0,879.0
9923,300.0,215.0,996.0
9924,300.0,215.0,996.0
9925,300.0,215.0,996.0
9926,300.0,215.0,996.0
9927,541.0,283.0,996.0
9928,541.0,283.0,1202.0
9929,541.0,283.0,1202.0
9930,541.0,283.0,1202.0
9931,541.0,283.0,1585.0
9932,541.0,283.0,1585.0
9933,541.0,283.0,845.0
9934,541.0,283.0,845.0
9935,541.0,191.0,845.0
9936,541.0,191.0,845.0
9937,541.0,191.0,845.0
9938,541.0,162.0,845.0
9939,541.0,162.0,186.0
9940,41.0,162.0,186.0
9941,541.0,162.0,186.0
9942,541.0,409.0,186.0
9943,541.0,409.0,186.0
9944,534.0,168.0,186.0
9945,534.0,168.0,186.0
9946,611.0,234.0,186.0
9947,611.0,234.0,186.0
9948,611.0,234.0,186.0
9949,611.0,234.0,186.0
9950,611.0,234.0,186.0
9951,611.0,234.0,186.0
9952,611.0,329.0,338.0
9953,611.0,329.0,338.0
9954,611.0,329.0,338.0
9955,611.0,329.0,699.0
9956,611.0,329.0,699.0
9957,611.0,329.0,497.0
9958,655.0,329.0,497.0
9959,655.0,329.0,497.0
9960,114.0,329.0,561.0
9961,114.0,329.0,561.0
9962,114.0,329.0,561.0
9963,409.0,329.0,561.0
9964,409.0,329.0,561.0
9965,409.0,180.0,561.0
9966,409.0,297.0,561.0
9967,409.0,297.0,561.0
9968,409.0,354.0,561.0
9969,409.0,354.0,561.0
9970,409.0,386.0,561.0
9971,409.0,261.0,561.0
9972,409.0,261.0,561.0
9973,409.0,261.0,561.0
9974,409.0,261.0,561.0
9975,409.0,261.0,801.0
9976,395.0,5261.0,801.0
9977,409.0,261.0,686.0
9978,409.0,261.0,686.0
9979,409.0,261.0,686.0
9980,409.0,261.0,655.0
9981,4099.0,261.0,722.0
9982,409.0,261.0,722.0
9983,409.0,261.0,490.0
9984,409.0,261.0,665.0
9985,496.0,241.0,665.0
9986,496.0,241.0,665.0
9987,496.0,241.0,665.0
11785,355.0,132.0,1049.0
11786,355.0,206.0,1049.0
11787,355.0,206.0,1049.0
11788,355.0,206.0,1049.0
11789,355.0,405.0,1049.0
11790,355.0,168.0,1049.0
11791,355.0,168.0,1049.0
11792,355.0,98.0,1049.0
11793,355.0,98.0,1049.0
11794,355.0,233.0,1049.0
11795,355.0,233.0,1049.0
11796,355.0,233.0,961.0
11797,355.0,233.0,961.0
11798,355.0,145.0,961.0
11799,355.0,145.0,961.0
11800,355.0,299.0,961.0
11801,355.0,299.0,776.0
11802,355.0,299.0,776.0
11803,355.0,299.0,776.0
11804,355.0,456.0,776.0
11805,355.0,456.0,713.0
11806,355.0,456.0,713.0
11807,355.0,456.0,713.0
11808,355.0,456.0,713.0
11809,355.0,456.0,713.0
11810,355.0,456.0,713.0
11811,355.0,456.0,713.0
11812,355.0,456.0,713.0
11813,355.0,456.0,713.0
11814,355.0,456.0,713.0
11815,355.0,456.0,713.0
11816,355.0,456.0,713.0
11817,355.0,456.0,713.0
11818,355.0,293.0,713.0
11819,355.0,293.0,713.0
11820,355.0,293.0,713.0
11821,355.0,293.0,713.0
11822,355.0,293.0,1250.0
11823,355.0,293.0,1097.0
11824,355.0,293.0,1097.0
11825,355.0,424.0,1097.0
11826,355.0,214.0,1097.0
11827,355.0,214.0,1097.0
11828,355.0,214.0,1097.0
11829,355.0,214.0,1097.0
11830,355.0,214.0,1097.0
11831,355.0,214.0,1097.0
11832,355.0,214.0,1097.0
11833,355.0,214.0,1097.0
11834,355.0,250.0,1097.0
11835,355.0,250.0,1097.0
11836,355.0,250.0,1097.0
11837,355.0,374.0,1097.0
11838,355.0,374.0,1097.0
11839,355.0,374.0,635.0
11840,355.0,374.0,635.0
11841,355.0,200.0,635.0
11842,355.0,200.0,635.0
11843,355.0,200.0,635.0
11844,355.0,200.0,941.0
11845,355.0,250.0,941.0
11846,355.0,109.0,941.0
11847,355.0,109.0,941.0
11848,355.0,109.0,941.0
11849,355.0,109.0,941.0
11850,355.0,109.0,941.0
11851,355.0,211.0,941.0
11852,355.0,211.0,941.0
11853,355.0,183.0,941.0
11854,355.0,183.0,941.0
11855,355.0,183.0,941.0
11856,355.0,183.0,941.0
11857,355.0,183.0,941.0
11858,355.0,183.0,941.0
11859,355.0,183.0,941.0
11860,355.0,183.0,941.0
11861,355.0,183.0,941.0
11862,355.0,183.0,941.0
11863,355.0,183.0,941.0
11864,355.0,183.0,941.0
11865,355.0,199.0,941.0
11866,355.0,199.0,941.0
11867,355.0,373.0,941.0
11868,355.0,373.0,941.0
11869,355.0,159.0,941.0
11870,355.0,159.0,941.0
11871,355.0,159.0,941.0
11872,355.0,159.0,941.0
11873,355.0,396.0,941.0
11874,355.0,396.0,941.0
11875,355.0,396.0,941.0
11876,355.0,396.0,1043.0
11877,355.0,396.0,1043.0
11878,355.0,396.0,1043.0
11879,355.0,396.0,1077.0
11880,355.0,396.0,1077.0
11881,355.0,101.0,1077.0
11882,355.0,181.0,1077.0
11883,355.0,181.0,1077.0
11884,355.0,181.0,1077.0
11885,355.0,181.0,1077.0
11886,355.0,181.0,1077.0
11887,355.0,326.0,1077.0
11888,355.0,326.0,1077.0
11889,355.0,326.0,1077.0
11890,281.0,326.0,1077.0
11891,281.0,326.0,1077.0
11892,281.0,326.0,1077.0
11893,403.0,326.0,1077.0
11894,403.0,326.0,1077.0
11895,403.0,326.0,1077.0
11896,403.0,326.0,1077.0
11897,403.0,326.0,1077.0
11898,403.0,326.0,1077.0
11899,521.0,326.0,1077.0
11900,521.0,326.0,1077.0
11901,521.0,326.0,1077.0
11902,521.0,326.0,1077.0
11903,521.0,271.0,1077.0
11904,521.0,271.0,1077.0
11905,521.0,271.0,1077.0
11906,521.0,271.0,1077.0
11907,521.0,271.0,1077.0
11908,521.0,271.0,1077.0
11909,521.0,271.0,1077.0
11910,521.0,271.0,1077.0
11911,521.0,271.0,1077.0
11912,52121.0,271.0,147.0
11913,521.0,271.0,147.0
11914,521.0,271.0,147.0
11915,521.0,271.0,639.0
11916,521.0,271.0,639.0
11917,521.0,365.0,639.0
11918,521.0,258.0,639.0
11919,521.0,258.0,639.0
11920,521.0,258.0,639.0
11921,521.0,258.0,639.0
11922,521.0,258.0,639.0
11923,521.0,258.0,582.0
11924,521.0,268.0,582.0
11925,521.0,268.0,582.0
11926,521.0,268.0,582.0
11927,521.0,268.0,582.0
11928,521.0,268.0,1508.0
11929,281.0,268.0,1508.0
11930,437.0,268.0,1508.0
11931,5200.0,268.0,1508.0
13366,1492.0,1855.0,530.0
13367,1492.0,1855.0,530.0
13368,1492.0,1855.0,530.0
13369,1492.0,1855.0,322.0
13370,1492.0,1855.0,322.0
13371,1492.0,1855.0,322.0
13372,1492.0,1855.0,322.0
13373,1492.0,2699.0,322.0
13374,1492.0,3821.0,322.0
13375,1492.0,3821.0,322.0
13376,1492.0,2164.0,322.0
13377,1492.0,2164.0,322.0
13378,1492.0,2164.0,322.0
13379,1492.0,2164.0,322.0
13380,1492.0,2164.0,322.0
13381,1492.0,2164.0,322.0
13382,1492.0,2164.0,322.0
13383,1492.0,2164.0,221.0
13384,1492.0,2164.0,221.0
13385,1492.0,2164.0,221.0
13386,1492.0,2164.0,125.0
13387,1492.0,2164.0,125.0
13388,1492.0,81.0,125.0
13389,1492.0,43.0,125.0
13390,1492.0,43.0,125.0
13391,1492.0,3441.0,125.0
13392,1492.0,3441.0,125.0
13393,1492.0,3441.0,125.0
13394,1492.0,1815.0,125.0
13395,1492.0,1815.0,125.0
13396,1492.0,1815.0,125.0
13397,1492.0,1823.0,125.0
13398,1492.0,1823.0,125.0
13399,1492.0,1823.0,125.0
13400,1492.0,1823.0,125.0
13401,1492.0,1823.0,125.0
13402,1492.0,1823.0,125.0
13403,1492.0,1823.0,125.0
13404,1492.0,1823.0,401.0
13405,1492.0,1823.0,401.0
13406,2030.0,1823.0,401.0
13407,2030.0,1823.0,401.0
13408,1123.0,1823.0,401.0
13409,1123.0,1823.0,401.0
13410,1123.0,1823.0,401.0
13411,1123.0,1823.0,401.0
13412,1123.0,1823.0,274.0
13413,1123.0,1823.0,553.0
13414,1123.0,1823.0,553.0
13415,1123.0,1823.0,1012.0
13416,1123.0,1823.0,1012.0
13417,1123.0,1823.0,1012.0
13418,1123.0,1823.0,389.0
13419,1123.0,1823.0,389.0
13420,1123.0,1823.0,389.0
13421,1123.0,1823.0,389.0
13422,1123.0,1823.0,389.0
13423,1123.0,1823.0,389.0
13424,1123.0,1823.0,389.0
13425,1123.0,1823.0,830.0
13426,1123.0,1823.0,830.0
13427,1123.0,1823.0,538.0
13428,1123.0,1823.0,538.0
13429,1123.0,1823.0,486.0
13430,1123.0,1823.0,486.0
13431,1123.0,1823.0,486.0
13432,1123.0,1823.0,486.0
13433,1123.0,1823.0,207.0
13434,1123.0,1823.0,207.0
13435,1123.0,1823.0,355.0
13436,1123.0,1823.0,355.0
13437,1123.0,1823.0,390.0
13438,1123.0,1823.0,390.0
13439,1123.0,1823.0,280.0
13440,2564.0,1823.0,280.0
13441,2564.0,1823.0,415.0
13442,2564.0,1823.0,415.0
13443,2564.0,1823.0,415.0
13444,2564.0,1823.0,415.0
13445,2564.0,1823.0,415.0
13446,2564.0,1823.0,415.0
13447,2564.0,1823.0,415.0
13448,2564.0,1823.0,415.0
13449,2564.0,1823.0,415.0
13450,2564.0,1823.0,415.0
13451,2564.0,1823.0,415.0
13452,2564.0,1823.0,542.0
13453,2564.0,1823.0,542.0
13454,2564.0,1823.0,542.0
13455,2564.0,1823.0,542.0
13456,2564.0,1823.0,542.0
13457,2564.0,1823.0,542.0
13458,2564.0,1823.0,542.0
13459,2564.0,1823.0,542.0
13460,2564.0,1823.0,542.0
13461,2564.0,1823.0,542.0
13462,2564.0,1823.0,123.0
13463,2564.0,1823.0,123.0
13464,2564.0,1823.0,123.0
13465,2564.0,1823.0,123.0
13466,2564.0,1823.0,123.0
13467,2564.0,1823.0,123.0
13468,2564.0,1823.0,123.0
13469,2564.0,1823.0,123.0
13470,2564.0,1823.0,123.0
13471,2564.0,1823.0,123.0
13472,2564.0,1823.0,123.0
13473,2564.0,1823.0,123.0
13474,2564.0,1823.0,123.0
13475,2564.0,1823.0,123.0
13476,2564.0,1823.0,123.0
13477,2564.0,1823.0,123.0
13478,2564.0,1823.0,123.0
13479,2564.0,1684.0,123.0
13480,2564.0,1684.0,123.0
13481,2564.0,1684.0,123.0
13482,2564.0,1684.0,123.0
13483,2564.0,1961.0,123.0
13484,2564.0,1961.0,123.0
13485,2564.0,2480.0,123.0
13486,2564.0,2480.0,123.0
13487,2564.0,2480.0,123.0
13488,2564.0,2480.0,123.0
13489,2564.0,2480.0,123.0
13490,2564.0,2480.0,123.0
13491,2564.0,2480.0,123.0
13492,2564.0,2480.0,123.0
13493,2564.0,2480.0,123.0
13494,2564.0,2480.0,123.0
13495,2564.0,2480.0,123.0
13496,2564.0,2480.0,354.0
13497,2564.0,2480.0,354.0
13498,2564.0,2480.0,354.0
13499,1564.0,2480.0,354.0
13500,1564.0,2480.0,611.0
13501,2862.0,2480.0,611.0
13502,2862.0,2480.0,611.0
13503,2862.0,2480.0,550.0
13504,2862.0,2480.0,418.0
13505,2862.0,2480.0,418.0
13506,2862.0,2480.0,418.0
15272,441.0,1209.0,2659.0
15273,441.0,1853.0,2659.0
15274,41.0,1853.0,2659.0
15275,441.0,1853.0,2659.0
15276,441.0,1853.0,2659.0
15277,441.0,2142.0,2659.0
15278,441.0,2142.0,2659.0
15279,656.0,2142.0,2659.0
15280,656.0,2142.0,2659.0
15281,623.0,2142.0,2659.0
15282,223.0,2142.0,2659.0
15283,820.0,2142.0,2659.0
15284,820.0,2142.0,2659.0
15285,820.0,2142.0,2659.0
15286,820.0,2142.0,3511.0
15287,820.0,2142.0,70.0
15288,100.0,2142.0,60.0
15289,100.0,2142.0,17.0
15290,100.0,2142.0,17.0
15291,100.0,57.0,17.0
15292,100.0,57.0,17.0
15293,100.0,57.0,17.0
15294,100.0,57.0,17.0
15295,100.0,57.0,17.0
15296,108.0,57.0,17.0
15297,108.0,57.0,17.0
15298,108.0,57.0,17.0
15299,3750.0,57.0,17.0
15300,3750.0,57.0,17.0
15301,3750.0,57.0,17.0
15302,1140.0,57.0,17.0
15303,217.0,57.0,17.0
15304,217.0,57.0,17.0
15305,217.0,57.0,17.0
15306,217.0,57.0,17.0
15307,217.0,57.0,17.0
15308,217.0,57.0,17.0
15309,217.0,57.0,1639.0
15310,217.0,57.0,1639.0
15311,710.0,57.0,3170.0
15312,710.0,57.0,3170.0
15313,710.0,57.0,3170.0
15314,710.0,57.0,3170.0
15315,460.0,57.0,3170.0
15316,381.0,57.0,3170.0
15317,381.0,57.0,3170.0
15318,381.0,1116.0,3170.0
15319,381.0,1116.0,3170.0
15320,381.0,1116.0,2387.0
15321,381.0,1116.0,2387.0
15322,227.0,3147.0,2387.0
15323,2.0,3147.0,2387.0
15324,227410.0,3147.0,2387.0
15325,410.0,1099.0,2387.0
15326,410.0,2570.0,2387.0
15327,410.0,2570.0,2387.0
15328,410.0,2570.0,2387.0
15329,410.0,2570.0,2387.0
15330,410.0,2570.0,2387.0
15331,410.0,2570.0,2387.0
15332,410.0,2570.0,2387.0
15333,532.0,2570.0,1601.0
15334,532.0,2570.0,1601.0
15335,532.0,2570.0,1601.0
15336,532.0,2570.0,1601.0
15337,532.0,2570.0,1601.0
15338,532.0,2570.0,1601.0
15339,532.0,2570.0,1601.0
15340,532.0,2570.0,1601.0
15341,50.0,2570.0,1601.0
15342,532.0,2570.0,1601.0
15343,532.0,2570.0,1601.0
15344,532.0,2570.0,2102.0
15345,466.0,2570.0,2861.0
15346,466.0,2570.0,2861.0
15347,466.0,2570.0,2861.0
15348,466.0,2570.0,2861.0
15349,466.0,2570.0,2861.0
15350,466.0,2570.0,2861.0
15351,466.0,2570.0,2861.0
15352,466.0,2570.0,2503.0
15353,466.0,2570.0,2503.0
15354,466.0,1387.0,2503.0
15355,466.0,1387.0,1867.0
15356,466.0,1387.0,1867.0
15357,466.0,1387.0,1867.0
15358,466.0,1387.0,1968.0
15359,466.0,1387.0,1968.0
15360,466.0,1387.0,1968.0
15361,466.0,1387.0,1968.0
15362,466.0,1387.0,2928.0
15363,466.0,1387.0,2928.0
15364,466.0,1387.0,2928.0
15365,466.0,1387.0,2928.0
15366,460.0,1387.0,2928.0
15367,460.0,1387.0,2928.0
15368,805.0,1387.0,2928.0
15369,805.0,1387.0,2928.0
15370,805.0,1387.0,3251.0
15371,805.0,1387.0,3251.0
15372,805.0,1387.0,1858.0
15373,361.0,1387.0,1858.0
15374,461.0,1387.0,1495.0
15375,3661.0,1387.0,1495.0
15376,361.0,1387.0,1495.0
15377,361.0,1387.0,1495.0
15378,361.0,1387.0,1495.0
15379,361.0,1387.0,1495.0
15380,361.0,1387.0,1495.0
15381,361.0,1387.0,1495.0
15382,361.0,1640.0,1495.0
15383,361.0,1640.0,1495.0
15384,361.0,1640.0,1495.0
15385,361.0,1640.0,1495.0
15386,361.0,1640.0,1495.0
15387,361.0,1640.0,1495.0
15388,361.0,1640.0,1495.0
15389,361.0,1640.0,1495.0
15390,361.0,1640.0,1495.0
15391,361.0,1640.0,1495.0
15392,361.0,1640.0,1495.0
15393,361.0,1640.0,1495.0
15394,361.0,1640.0,1495.0
15395,361.0,1640.0,1495.0
15396,361.0,1640.0,1495.0
15397,361.0,1640.0,1495.0
15398,361.0,1640.0,1495.0
15399,361.0,1640.0,1495.0
15400,361.0,1189.0,1495.0
15401,361.0,1189.0,1495.0
15402,361.0,1189.0,1495.0
15403,528.0,1189.0,1495.0
15404,538.0,1189.0,1495.0
15405,538.0,1189.0,1495.0
16970,2233.0,2681.0,1646.0
16971,2344.0,1116.0,1646.0
16972,2344.0,3233.0,1646.0
16973,2344.0,3233.0,1646.0
16974,2344.0,3233.0,1646.0
16975,2344.0,1597.0,1646.0
16976,2344.0,3206.0,1646.0
16977,2344.0,3206.0,1646.0
16978,2344.0,3206.0,1646.0
16979,2344.0,3206.0,1646.0
16980,2344.0,3206.0,1646.0
16981,1835.0,3206.0,2876.0
16982,1835.0,3206.0,2876.0
16983,1835.0,3206.0,2876.0
16984,1835.0,3206.0,2876.0
16985,1835.0,3206.0,2876.0
16986,1835.0,1165.0,2876.0
16987,1835.0,1165.0,2876.0
16988,1835.0,1620.0,2876.0
16989,1835.0,1620.0,2876.0
16990,3407.0,1620.0,2876.0
16991,1013.0,1550.0,2876.0
16992,1423.0,1550.0,2876.0
16993,1423.0,1550.0,2876.0
16994,1273.0,1550.0,2876.0
16995,1273.0,1914.0,2876.0
16996,1273.0,5271.0,2876.0
16997,1273.0,1800.0,1404.0
16998,1273.0,1800.0,1404.0
16999,1273.0,1800.0,1404.0
17000,1273.0,1800.0,1404.0
17001,1273.0,3072.0,1404.0
17002,2018.0,3072.0,1404.0
17003,2018.0,3072.0,1404.0
17004,2018.0,3072.0,1404.0
17005,2018.0,4649.0,1404.0
17006,2196.0,4649.0,1404.0
17007,2196.0,4649.0,1404.0
17008,2196.0,2764.0,1404.0
17009,2196.0,2186.0,1404.0
17010,2196.0,1488.0,1404.0
17011,2196.0,2333.0,1404.0
17012,2196.0,1659.0,1404.0
17013,2196.0,1659.0,1404.0
17014,2196.0,1659.0,1404.0
17015,2196.0,1174.0,1404.0
17016,2665.0,2133.0,1404.0
17017,2665.0,2441.0,1579.0
17018,2665.0,2441.0,1579.0
17019,2665.0,2441.0,1579.0
17020,2028.0,2441.0,1579.0
17021,1354.0,2441.0,1579.0
17022,1354.0,2441.0,1579.0
17023,1354.0,2441.0,1579.0
17024,1354.0,2441.0,1579.0
17025,1354.0,2441.0,1579.0
17026,947.0,2441.0,1579.0
17027,1700.0,2441.0,1579.0
17028,1700.0,2441.0,1579.0
17029,1700.0,2441.0,1579.0
17030,1700.0,2441.0,1579.0
17031,1700.0,2441.0,1579.0
17032,1700.0,2441.0,1579.0
17033,1700.0,2441.0,1579.0
17034,1700.0,2441.0,1579.0
17035,1700.0,2441.0,1579.0
17036,1700.0,2441.0,1579.0
17037,1700.0,2441.0,1579.0
17038,2433.0,2441.0,1579.0
17039,2433.0,2441.0,1579.0
17040,701.0,2441.0,1579.0
17041,701.0,2192.0,1579.0
17042,701.0,1881.0,1579.0
17043,2726.0,1881.0,1579.0
17044,2726.0,1881.0,1579.0
17045,2726.0,1881.0,1579.0
17046,2726.0,1881.0,3499.0
17047,2726.0,1881.0,3499.0
17048,2726.0,1881.0,3499.0
17049,1799.0,1881.0,3499.0
17050,1799.0,1881.0,3499.0
17051,2302.0,1881.0,3499.0
17052,1779.0,1881.0,3499.0
17053,1779.0,1881.0,3499.0
17054,1779.0,3485.0,3499.0
17055,1779.0,3485.0,3499.0
17056,1303.0,3485.0,3499.0
17057,1303.0,3485.0,3499.0
17058,1303.0,3485.0,3499.0
17059,1535.0,3485.0,3499.0
17060,1535.0,3485.0,3499.0
17061,1535.0,3485.0,3499.0
17062,2404.0,3485.0,3499.0
17063,2404.0,3485.0,3499.0
17064,2404.0,3485.0,3499.0
17065,2404.0,3485.0,3499.0
17066,2404.0,3485.0,3499.0
17067,2404.0,3485.0,3499.0
17068,2404.0,3485.0,3499.0
17069,2404.0,3485.0,3499.0
17070,2404.0,3485.0,2652.0
17071,2404.0,3485.0,2652.0
17072,2404.0,3485.0,3617.0
17073,2404.0,3485.0,3617.0
17074,2404.0,3485.0,3617.0
17075,2404.0,3485.0,3617.0
17076,2404.0,3485.0,3617.0
17077,2404.0,3485.0,3617.0
17078,2404.0,3485.0,3617.0
17079,1075.0,3485.0,3617.0
17080,1075.0,3485.0,3617.0
17081,971.0,3485.0,3617.0
17082,971.0,3485.0,3617.0
17083,971.0,3485.0,3617.0
17084,292.0,3485.0,3617.0
17085,1292.0,3485.0,3617.0
17086,2266.0,3485.0,3617.0
17087,1251.0,3485.0,3617.0
17088,1.0,3485.0,3617.0
17089,1251.0,3485.0,3617.0
17090,1251.0,3485.0,3617.0
17091,1251.0,3485.0,3617.0
17092,2502.0,3485.0,3617.0
17563,2369.0,463.0,1867.0
17564,2369.0,463.0,1256.0
17565,2369.0,463.0,1256.0
17566,2369.0,463.0,1256.0
17567,2369.0,463.0,1256.0
17568,2369.0,463.0,1256.0
17569,1554.0,2691.0,2691.0
17570,2546.0,23746.0,2378.0
18343,1826.0,168.0,1434.0
18344,2200.0,168.0,1434.0
18345,1163.0,168.0,1434.0
18346,1163.0,168.0,1434.0
18347,1163.0,168.0,1434.0
18348,1163.0,168.0,1434.0
18349,1163.0,168.0,1434.0
18350,1163.0,168.0,1434.0
18351,1163.0,168.0,1434.0
18352,1163.0,168.0,1434.0
18353,1163.0,168.0,1434.0
18354,2141.0,168.0,1434.0
18355,2141.0,168.0,1434.0
18356,2141.0,168.0,1434.0
18357,2141.0,168.0,1434.0
18358,1240.0,168.0,1434.0
18359,1240.0,168.0,1434.0
18360,1240.0,168.0,1434.0
18361,1240.0,168.0,1434.0
18362,1240.0,168.0,1763.0
18363,1240.0,168.0,1763.0
18364,1240.0,168.0,3359.0
18365,1240.0,168.0,3359.0
18366,1240.0,168.0,3359.0
18367,2.0,168.0,3359.0
18368,1240240.0,168.0,3359.0
18369,1240.0,168.0,3359.0
18370,1240.0,168.0,3359.0
18371,1125.0,168.0,3359.0
18372,1125.0,168.0,3359.0
18373,1125.0,168.0,3359.0
18374,1865.0,33565.0,3359.0
19253,861.0,2685.0,2000.0
19254,861.0,1674.0,2000.0
19255,861.0,2075.0,2000.0
19256,8190.0,2075.0,2000.0
19257,11056.0,2075.0,2000.0
19258,1056.0,2075.0,2000.0
19259,1056.0,2075.0,2000.0
19260,1056.0,2075.0,2000.0
19261,1056.0,2075.0,2704.0
19262,1056.0,2075.0,2704.0
19263,253.0,2075.0,2704.0
19264,253.0,2075.0,2704.0
19265,253.0,2075.0,2704.0
19266,927.0,2075.0,2704.0
19267,927.0,2075.0,2704.0
19268,927.0,2075.0,2704.0
19269,927.0,2075.0,2704.0
19270,927.0,2075.0,2704.0
19271,674.0,2075.0,2704.0
19272,674.0,2075.0,2704.0
19273,674.0,2075.0,2704.0
19274,674.0,2075.0,2704.0
19275,6744.0,2075.0,2704.0
19276,1657.0,2075.0,2704.0
19277,1657.0,2075.0,2704.0
19278,1657.0,2075.0,2704.0
19279,514.0,2075.0,2795.0
19280,514.0,2075.0,2795.0
19281,514.0,2075.0,2852.0
19282,514.0,2075.0,2852.0
19283,514.0,2075.0,2852.0
19284,514.0,2075.0,2852.0
19285,514.0,2075.0,2852.0
19286,514.0,2075.0,2852.0
19287,514.0,2075.0,2852.0
19288,761.0,2075.0,2852.0
19289,761.0,2075.0,2852.0
19290,761.0,2075.0,2852.0
19291,761.0,2075.0,2852.0
19292,761.0,2075.0,2852.0
19293,761.0,2075.0,2852.0
19294,761.0,2075.0,2852.0
19295,761.0,2075.0,2852.0
19296,1011.0,2075.0,2852.0
19297,1011.0,2075.0,2852.0
19298,2049.0,2075.0,2852.0
19299,1477.0,2075.0,2852.0
19300,1477.0,2075.0,2852.0
19301,619.0,2075.0,2852.0
19302,1118.0,2075.0,2852.0
19303,297.0,2075.0,2852.0
19304,1187.0,2075.0,2852.0
19305,1378.0,2075.0,2852.0
19306,1137.0,2075.0,2852.0
19307,1137.0,2075.0,2852.0
19308,631.0,2075.0,2852.0
19309,631.0,2075.0,2852.0
19310,1167.0,2075.0,2852.0
19311,1167.0,2075.0,2852.0
19312,1391.0,2075.0,2852.0
19313,1243.0,2075.0,2852.0
19314,1570.0,2075.0,2852.0
19315,1570.0,2075.0,2852.0
19316,1167.0,2075.0,2852.0
19317,1169.0,2075.0,2852.0
19318,1169.0,2075.0,2852.0
19319,1169.0,2075.0,2852.0
19320,169.0,2075.0,2852.0
19321,813.0,2075.0,2852.0
19322,1621.0,2075.0,2852.0
19323,1621.0,2075.0,2852.0
19324,1621.0,2075.0,2852.0
19325,1621.0,2075.0,2852.0
19326,1621.0,2075.0,2852.0
19327,1621.0,2231.0,2852.0
19328,1095.0,2231.0,2852.0
19329,2543.0,2231.0,2852.0
19330,2543.0,2231.0,2852.0
19331,1037.0,2231.0,2852.0
19332,1031037.0,2231.0,2852.0
19333,703.0,1392.0,2852.0
19334,584.0,1392.0,2852.0
19335,584.0,2316.0,2852.0
19336,584.0,2316.0,2852.0
19337,1013.0,2316.0,2852.0
19338,859.0,2316.0,2852.0
19339,859.0,2316.0,2852.0
19340,859.0,2316.0,2852.0
19341,1769.0,2316.0,2852.0
19342,1769.0,2316.0,2852.0
19343,1769.0,2316.0,2852.0
19344,1769.0,2316.0,2852.0
19345,1769.0,2316.0,2852.0
19346,1046.0,2316.0,5590.0
19347,1046.0,2316.0,5590.0
19348,1046.0,2316.0,5590.0
19349,1046.0,2316.0,5590.0
19350,1046.0,2316.0,5590.0
19351,1046.0,2316.0,5590.0
19352,1046.0,2316.0,5590.0
19353,1046.0,2316.0,5590.0
19354,1046.0,2316.0,5590.0
19355,1046.0,2316.0,5590.0
19356,948.0,2316.0,5590.0
19357,1182.0,2316.0,5590.0
19358,791.0,2316.0,5590.0
19359,791.0,2316.0,5590.0
19360,791.0,2316.0,5590.0
19361,791.0,3463.0,5590.0
19362,791.0,3463.0,5590.0
19363,791.0,3463.0,5590.0
19364,1825.0,3463.0,1349.0
19365,1825.0,3463.0,1349.0
19366,1825.0,3463.0,1349.0
19367,1842.0,3463.0,1349.0
19368,1472.0,3463.0,1349.0
19369,1472.0,3463.0,1349.0
19370,1472.0,3463.0,1349.0
19371,1472.0,3463.0,1349.0
19372,411.0,3463.0,1349.0
19373,411.0,3463.0,1349.0
19374,454.0,3463.0,1349.0
19375,454.0,3463.0,1349.0
19376,454.0,3463.0,1349.0
19377,454.0,3463.0,1349.0
19378,454.0,3463.0,1349.0
19379,429.0,3463.0,1349.0
19380,1238.0,3463.0,1349.0
19381,1004.0,3463.0,1349.0
19382,1363.0,3463.0,1349.0
19383,1363.0,3463.0,1349.0
19384,1868.0,3463.0,1349.0
19385,1295.0,3463.0,1349.0
19386,1295.0,3463.0,1349.0
19387,545.0,3463.0,1349.0
19388,545.0,3463.0,1349.0
19389,893.0,3463.0,1349.0
19390,893.0,3463.0,1349.0
19391,893.0,3463.0,1349.0
19392,1492.0,3463.0,1349.0
19393,1492.0,3463.0,1349.0
20465,1389.0,2743.0,3471.0
20466,1389.0,2743.0,3471.0
20467,1389.0,2743.0,3471.0
20468,1389.0,2743.0,3471.0
20469,1389.0,2743.0,3471.0
20470,1389.0,2743.0,3471.0
20471,1389.0,2743.0,3471.0
20472,1389.0,2743.0,3471.0
20473,1389.0,2372.0,3471.0
20474,1389.0,950.0,3471.0
20475,1389.0,2266.0,2413.0
20476,1389.0,2266.0,2413.0
20477,1389.0,2490.0,2413.0
20478,1453.0,2490.0,2413.0
20479,1453.0,2490.0,2413.0
20480,1453.0,2490.0,2413.0
20481,954.0,2490.0,2413.0
20482,954.0,2490.0,2413.0
20483,954.0,2490.0,2413.0
20484,954.0,2490.0,2413.0
20485,954.0,2490.0,2413.0
20486,954.0,1574.0,2413.0
20487,954.0,1574.0,2413.0
20488,954.0,1574.0,2413.0
20489,954.0,1574.0,2413.0
20490,954.0,1574.0,2074.0
20491,954.0,1574.0,2074.0
20492,954.0,1744.0,2074.0
20493,954.0,2005.0,2074.0
20494,954.0,2005.0,2932.0
20495,954.0,2005.0,2932.0
20496,954.0,2005.0,2932.0
20497,954.0,2005.0,2932.0
20498,954.0,2005.0,3808.0
20499,954.0,2005.0,4118.0
20500,954.0,2005.0,4118.0
20501,954.0,2005.0,4118.0
20502,954.0,2005.0,4118.0
20503,954.0,2005.0,4118.0
20504,1663.0,2005.0,4118.0
20505,1663.0,2005.0,4118.0
20506,1663.0,3272.0,4118.0
20507,1413.0,803.0,4118.0
20508,1413.0,803.0,4118.0
20509,1413.0,803.0,4118.0
20510,1413.0,803.0,4118.0
20511,1413.0,803.0,4118.0
20512,1413.0,803.0,4118.0
20513,1413.0,1122.0,4118.0
20514,2267.0,1122.0,4118.0
20515,2267.0,1122.0,4118.0
20516,2267.0,1122.0,4118.0
20517,2267.0,1122.0,4118.0
20518,2267.0,1122.0,4118.0
20519,2267.0,1122.0,4118.0
20520,2267.0,1122.0,4118.0
20521,873.0,1122.0,4118.0
20522,1528.0,1122.0,4118.0
20523,1835.0,1122.0,4118.0
20524,2317.0,1122.0,4118.0
20525,2317.0,1996.0,4118.0
20526,2317.0,1295.0,4118.0
20527,1046.0,1295.0,4118.0
20528,1046.0,1295.0,4118.0
20529,1046.0,1295.0,4118.0
20530,1046.0,3837.0,4118.0
20531,1046.0,2659.0,4118.0
20532,1046.0,2625.0,4118.0
20533,621.0,2625.0,4714.0
20534,621.0,2625.0,4714.0
20535,621.0,2625.0,4714.0
20536,621.0,2625.0,4714.0
20537,621.0,1825.0,4714.0
20538,621.0,1825.0,4714.0
20539,621.0,1825.0,4714.0
20540,1270.0,1825.0,4714.0
20541,1270.0,1825.0,4714.0
20542,1365.0,1825.0,4714.0
20543,902.0,2598.0,4714.0
20544,902.0,2003.0,4714.0
20545,1046.0,2003.0,4714.0
20546,1046.0,2003.0,4714.0
20547,1046.0,2003.0,4714.0
20548,1046.0,2003.0,4714.0
20549,1046.0,2003.0,4714.0
20550,1692.0,2003.0,4714.0
20551,1692.0,2003.0,4714.0
20552,1692.0,2003.0,2430.0
20553,1692.0,2003.0,2430.0
20554,1430.0,2003.0,2430.0
20555,1430.0,1432.0,2430.0
20556,1430.0,1824.0,2430.0
20557,1430.0,1824.0,2430.0
20558,809.0,2454.0,2430.0
20559,809.0,2454.0,2430.0
20560,809.0,2454.0,2280.0
20561,809.0,2454.0,2280.0
20562,1000.0,2454.0,2280.0
20563,1000.0,2454.0,2280.0
20564,1033.0,2454.0,3676.0
20565,1033.0,2454.0,3676.0
20566,1033.0,1348.0,3676.0
20567,867.0,1348.0,3676.0
20568,867.0,1348.0,3676.0
20569,867.0,1348.0,3676.0
20570,867.0,1348.0,3676.0
20571,867.0,1348.0,3676.0
20572,867.0,1348.0,3676.0
20573,867.0,861.0,1204.0
20574,867.0,861.0,1204.0
20575,867.0,1394.0,1204.0
20576,867.0,1394.0,1204.0
20577,867.0,1394.0,1204.0
20578,867.0,1394.0,1204.0
20579,867.0,2252.0,1204.0
20580,1168.0,1178.0,1204.0
20581,333.0,1178.0,1204.0
20582,954.0,1178.0,1204.0
20583,954.0,1178.0,1204.0
20584,1340.0,1178.0,1204.0
20585,1340.0,1178.0,1204.0
20586,2123.0,1178.0,1204.0
20587,2123.0,1178.0,1204.0
20588,2123.0,1178.0,1204.0
20589,2123.0,1798.0,1204.0
20590,1827.0,1798.0,1204.0
20591,943.0,1798.0,1204.0
20592,943.0,1798.0,1204.0
20593,943.0,1798.0,1204.0
20594,943.0,1798.0,1204.0
20595,853.0,1798.0,1204.0
20596,853.0,1798.0,1204.0
20597,853.0,1385.0,1204.0
20598,853.0,1385.0,1204.0
20599,1444.0,1385.0,1204.0
20600,1444.0,1385.0,1204.0
20601,1444.0,1385.0,1204.0
20602,1444.0,1385.0,1204.0
20603,1444.0,1385.0,1204.0
20604,1444.0,1385.0,3247.0
22263,911.0,991.0,252.0
22264,911.0,991.0,252.0
22265,911.0,991.0,252.0
22266,911.0,991.0,252.0
22267,911.0,991.0,252.0
22268,911.0,2574.0,252.0
22269,911.0,2574.0,252.0
22270,852.0,2574.0,252.0
22271,2132.0,2574.0,252.0
22272,2132.0,2574.0,252.0
22273,2132.0,2574.0,575.0
22274,32.0,2574.0,575.0
22275,21132.0,2574.0,575.0
22276,692.0,2116.0,276.0
22277,692.0,2116.0,276.0
22278,802.0,2116.0,276.0
22279,802.0,2116.0,276.0
22280,802.0,2116.0,276.0
22281,802.0,2116.0,276.0
22282,1458.0,2116.0,276.0
22283,1458.0,2116.0,276.0
22284,1458.0,1973.0,276.0
22285,1458.0,1973.0,276.0
22286,1051.0,1973.0,276.0
22287,10511051.0,1480.0,276.0
22288,1051.0,2233.0,276.0
22289,1051.0,2001.0,276.0
22290,1051.0,2001.0,276.0
22291,1051.0,2001.0,276.0
22292,1051.0,2001.0,276.0
22293,1.0,2001.0,276.0
22294,663.0,2001.0,276.0
22295,663.0,2001.0,276.0
22296,663.0,2001.0,276.0
22297,663.0,2001.0,276.0
22298,663.0,2001.0,276.0
22299,663.0,2001.0,276.0
22300,663.0,2001.0,276.0
22301,663.0,1339.0,276.0
22302,663.0,1339.0,276.0
22303,663.0,1339.0,276.0
22304,663.0,1528.0,276.0
22305,663.0,1528.0,276.0
22306,663.0,1818.0,276.0
22307,663.0,1443.0,276.0
22308,660.0,1443.0,276.0
22309,1056.0,1443.0,276.0
22310,1056.0,1443.0,276.0
22311,1056.0,1443.0,276.0
22312,1056.0,1443.0,276.0
22313,1056.0,1443.0,276.0
22314,1056.0,1443.0,276.0
22315,1056.0,1443.0,276.0
22316,1056.0,1443.0,276.0
22317,1056.0,1443.0,276.0
22318,1.0,1443.0,276.0
22319,1056.0,1443.0,441.0
22320,1056.0,1443.0,441.0
22321,1056.0,1443.0,441.0
22322,1056.0,1443.0,441.0
22323,1056.0,1443.0,445.0
22324,1056.0,1443.0,445.0
22325,101056.0,1167.0,445.0
22326,1056.0,845.0,445.0
22327,1056.0,845.0,445.0
22328,1056.0,845.0,445.0
22329,1056.0,845.0,445.0
22330,1056.0,845.0,445.0
22331,1056.0,845.0,445.0
22332,1056.0,845.0,445.0
22333,1056.0,845.0,445.0
22334,1056.0,845.0,445.0
22335,1056.0,845.0,445.0
22336,1056.0,845.0,445.0
22337,1056.0,845.0,445.0
22338,1056.0,845.0,502.0
22339,1056.0,845.0,502.0
22340,1056.0,845.0,502.0
22341,1056.0,845.0,502.0
22342,1056.0,1727.0,502.0
22343,1056.0,1727.0,502.0
22344,1056.0,1727.0,502.0
22345,10500.0,1727.0,502.0
22346,1056.0,1727.0,264.0
22347,1056.0,1727.0,264.0
22348,1578.0,1727.0,264.0
22349,1578.0,3127.0,264.0
22350,11578.0,3127.0,264.0
22351,1578.0,3127.0,264.0
22352,1578.0,3127.0,264.0
22353,1578.0,3127.0,351.0
22354,1578.0,3127.0,351.0
22355,1578.0,3127.0,351.0
22356,1578.0,3127.0,351.0
22357,1578.0,3127.0,599.0
22358,1578.0,3127.0,171.0
22359,1578.0,3127.0,171.0
22360,1578.0,3127.0,171.0
22361,1578.0,3127.0,171.0
22362,1578.0,3127.0,171.0
22363,1578.0,3127.0,309.0
22364,1578.0,3127.0,309.0
22365,1578.0,3127.0,309.0
22366,1578.0,3127.0,309.0
22367,1578.0,3127.0,934.0
22368,1578.0,3127.0,934.0
22369,1578.0,3127.0,787.0
22370,1578.0,3127.0,787.0
22371,1578.0,3127.0,370.0
22372,1578.0,3127.0,370.0
22373,1578.0,3127.0,370.0
22374,1578.0,3127.0,370.0
22375,1578.0,1442.0,370.0
22376,1578.0,1442.0,370.0
22377,1578.0,1442.0,370.0
22378,1578.0,1442.0,370.0
22379,1578.0,1442.0,370.0
22380,1578.0,1442.0,370.0
24184,317.0,8.0,184.0
24185,317.0,67.0,184.0
24186,317.0,64.0,187.0
24187,317.0,64.0,187.0
24188,197.0,64.0,187.0
24189,197.0,94.0,187.0
24190,197.0,94.0,252.0
24191,197.0,94.0,252.0
24192,197.0,72.0,252.0
24193,197.0,72.0,252.0
24194,197.0,132.0,252.0
24195,197.0,75.0,252.0
24196,293.0,123.0,252.0
24197,293.0,123.0,252.0
24198,293.0,123.0,252.0
24199,293.0,123.0,252.0
24200,293.0,123.0,252.0
24201,129.0,123.0,252.0
24202,219.0,123.0,252.0
24203,219.0,92.0,252.0
24204,219.0,92.0,183.0
24205,208.0,92.0,183.0
24206,208.0,92.0,183.0
24207,208.0,92.0,183.0
24208,208.0,92.0,200.0
24209,208.0,92.0,200.0
24210,427.0,92.0,200.0
24211,427.0,92.0,154.0
24212,427.0,92.0,200.0
24213,427.0,92.0,200.0
24214,427.0,92.0,192.0
24215,427.0,92.0,192.0
24216,427.0,92.0,192.0
24217,427.0,92.0,192.0
24218,427.0,92.0,192.0
24219,427.0,100.0,192.0
24220,427.0,19.0,192.0
24221,151.0,19.0,192.0
24222,151.0,19.0,192.0
24223,151.0,19.0,192.0
24224,151.0,19.0,233.0
24225,206.0,19.0,233.0
24226,206.0,19.0,233.0
24227,206.0,19.0,233.0
24228,221.0,19.0,233.0
24229,221.0,19.0,233.0
24230,221.0,19.0,382.0
24231,223.0,19.0,382.0
24232,223.0,50.0,382.0
24233,223.0,50.0,382.0
24234,223.0,59.0,382.0
24235,158.0,77.0,382.0
24236,162.0,77.0,382.0
24237,162.0,77.0,382.0
24238,162.0,77.0,382.0
24239,162.0,77.0,275.0
24240,162.0,77.0,275.0
24241,162.0,77.0,275.0
24242,162.0,38.0,275.0
24243,162.0,38.0,275.0
24244,162.0,38.0,275.0
24245,162.0,38.0,275.0
24246,162.0,215.0,275.0
24247,162.0,215.0,252.0
24248,162.0,215.0,230.0
24249,162.0,53.0,230.0
24250,162.0,53.0,143.0
24251,162.0,63.0,143.0
24252,162.0,63.0,143.0
24253,162.0,63.0,366.0
24254,162.0,63.0,366.0
24255,162.0,63.0,366.0
24256,162.0,63.0,366.0
24257,162.0,85.0,366.0
24258,162.0,113.0,366.0
24259,162.0,113.0,265.0
24260,162.0,113.0,265.0
24261,162.0,113.0,265.0
24262,162.0,113.0,265.0
24263,162.0,113.0,265.0
24264,162.0,113.0,167.0
24265,162.0,113.0,167.0
24266,162.0,113.0,442.0
24267,162.0,113.0,442.0
24268,310.0,113.0,442.0
24269,310.0,113.0,442.0
24270,310.0,87.0,442.0
24271,310.0,87.0,442.0
24272,88.0,87.0,442.0
24273,88.0,87.0,442.0
24274,88.0,99.0,442.0
24275,88.0,99.0,269.0
24276,88.0,99.0,269.0
24277,88.0,115.0,269.0
24278,88.0,115.0,269.0
24279,200.0,115.0,269.0
24280,200.0,115.0,269.0
24281,200.0,99.0,269.0
24282,134.0,99.0,269.0
24283,134.0,99.0,269.0
24284,190.0,99.0,269.0
24285,190.0,99.0,269.0
24286,190.0,99.0,402.0
24287,190.0,99.0,402.0
24288,190.0,99.0,402.0
24289,190.0,99.0,402.0
24290,399.0,99.0,402.0
24291,210.0,99.0,594.0
24292,210.0,104.0,594.0
24293,210.0,104.0,594.0
24294,210.0,104.0,594.0
24295,210.0,104.0,395.0
24296,210.0,104.0,434.0
24297,210.0,104.0,434.0
24298,210.0,104.0,434.0
24299,210.0,104.0,434.0
24300,210.0,104.0,552.0
24301,210.0,104.0,227.0
24302,210.0,104.0,514.0
24303,210.0,104.0,514.0
24304,387.0,104.0,514.0
24305,260.0,104.0,514.0
24306,260.0,104.0,514.0
24307,260.0,104.0,514.0
24308,260.0,104.0,514.0
24309,260.0,104.0,514.0
24310,203.0,104.0,514.0
24311,203.0,73.0,514.0
24312,203.0,68.0,189.0
24313,203.0,123.0,189.0
24314,203.0,123.0,189.0
24315,203.0,123.0,189.0
24316,216.0,123.0,189.0
24317,216.0,55.0,189.0
24318,216.0,74.0,189.0
24319,216.0,74.0,189.0
24320,216.0,74.0,189.0
24321,216.0,74.0,189.0
24322,320.0,74.0,189.0
24323,320.0,74.0,189.0
24324,320.0,121.0,189.0
24325,320.0,121.0,189.0
24326,320.0,121.0,189.0
24327,320.0,121.0,189.0
24328,328.0,121.0,262.0
24329,328.0,84.0,262.0
24330,328.0,84.0,262.0
24331,328.0,94.0,262.0
24332,328.0,94.0,262.0
24333,328.0,94.0,144.0
24334,328.0,94.0,119.0
24335,328.0,100.0,119.0
24336,328.0,100.0,119.0
26165,181.0,74.0,205.0
26166,181.0,74.0,205.0
26167,181.0,66.0,205.0
26168,181.0,20.0,205.0
26169,181.0,20.0,205.0
26170,335.0,20.0,205.0
26171,335.0,20.0,205.0
26172,335.0,64.0,205.0
26173,335.0,64.0,205.0
26174,335.0,70.0,205.0
26175,335.0,70.0,208.0
26176,335.0,70.0,76.0
26177,233.0,70.0,272.0
26178,233.0,70.0,129.0
26179,233.0,70.0,129.0
26180,233.0,70.0,182.0
26181,233.0,70.0,182.0
26182,233.0,70.0,182.0
26183,233.0,70.0,182.0
26184,233.0,70.0,182.0
26185,233.0,70.0,182.0
26186,363.0,52.0,182.0
26187,284.0,52.0,182.0
26188,95.0,52.0,182.0
26189,95.0,52.0,182.0
26190,95.0,73.0,397.0
26191,95.0,73.0,397.0
26192,95.0,73.0,397.0
26193,95.0,73.0,158.0
26194,232.0,73.0,158.0
26195,232.0,73.0,103.0
26196,232.0,73.0,103.0
26197,237.0,73.0,440.0
26198,186.0,73.0,287.0
26199,186.0,70.0,199.0
26200,186.0,127.0,199.0
26201,186.0,51.0,199.0
26202,186.0,51.0,199.0
26203,186.0,51.0,199.0
26204,186.0,51.0,199.0
26205,186.0,51.0,160.0
26206,186.0,36.0,175.0
26207,220.0,36.0,175.0
26208,220.0,36.0,175.0
26209,220.0,36.0,175.0
26210,189.0,36.0,175.0
26211,189.0,36.0,175.0
26212,263.0,36.0,175.0
26213,231.0,36.0,175.0
26214,231.0,113.0,173.0
26215,231.0,113.0,332.0
26216,231.0,43.0,148.0
26217,231.0,43.0,277.0
26218,231.0,43.0,242.0
26219,231.0,43.0,242.0
26220,231.0,43.0,192.0
26221,231.0,43.0,238.0
26222,231.0,43.0,238.0
26223,231.0,43.0,238.0
26224,122.0,43.0,238.0
26225,122.0,43.0,289.0
26226,258.0,43.0,289.0
26227,258.0,43.0,289.0
26228,258.0,43.0,289.0
26229,258.0,43.0,222.0
26230,483.0,104.0,222.0
26231,483.0,104.0,222.0
26232,241.0,104.0,222.0
26233,241.0,104.0,222.0
26234,241.0,104.0,222.0
26235,241.0,104.0,222.0
26236,241.0,99.0,222.0
26237,241.0,99.0,222.0
26238,241.0,99.0,222.0
26239,380.0,99.0,222.0
26240,380.0,99.0,222.0
26241,380.0,99.0,222.0
26242,380.0,99.0,222.0
26243,380.0,99.0,174.0
26244,380.0,99.0,179.0
26245,380.0,99.0,180.0
26246,380.0,99.0,180.0
26247,108.0,99.0,285.0
26248,108.0,99.0,285.0
26249,108.0,99.0,285.0
26250,108.0,99.0,285.0
26251,108.0,99.0,290.0
26252,108.0,99.0,290.0
26253,187.0,99.0,290.0
26254,187.0,99.0,290.0
26255,181.0,99.0,168.0
26256,181.0,99.0,168.0
26257,181.0,99.0,373.0
26258,298.0,99.0,245.0
26259,298.0,99.0,245.0
26260,298.0,99.0,372.0
26261,298.0,99.0,323.0
26262,145.0,99.0,323.0
26263,145.0,88.0,323.0
26264,145.0,51.0,323.0
26265,327.0,51.0,323.0
26266,327.0,51.0,323.0
26267,327.0,51.0,323.0
26268,327.0,42.0,323.0
26269,327.0,42.0,323.0
26270,327.0,61.0,323.0
26271,327.0,61.0,323.0
26272,168.0,61.0,323.0
26273,168.0,61.0,323.0
26274,168.0,61.0,323.0
26275,168.0,86.0,323.0
26276,435.0,86.0,323.0
26277,290.0,86.0,323.0
26278,436.0,86.0,323.0
26279,436.0,86.0,323.0
26280,436.0,86.0,323.0
26281,436.0,50.0,323.0
26282,436.0,50.0,323.0
26283,436.0,50.0,334.0
26284,436.0,50.0,334.0
26285,170.0,50.0,239.0
26286,170.0,50.0,239.0
26287,170.0,20.0,239.0
26288,170.0,68.0,239.0
26289,170.0,85.0,239.0
26290,170.0,85.0,174.0
26291,170.0,85.0,266.0
26292,170.0,85.0,266.0
26293,170.0,69.0,266.0
26294,170.0,69.0,266.0
26295,170.0,69.0,266.0
26296,170.0,69.0,266.0
26297,170.0,69.0,430.0
26298,170.0,23.0,430.0
26299,170.0,117.0,430.0
26300,170.0,117.0,430.0
26301,187.0,55.0,435.0
26302,392.0,55.0,435.0
26303,392.0,55.0,435.0
26304,392.0,55.0,435.0
26305,392.0,55.0,435.0
26306,392.0,55.0,195.0
26307,392.0,77.0,195.0
26308,443.0,77.0,120.0
26309,443.0,77.0,120.0
26310,162.0,77.0,247.0
26311,162.0,70.0,247.0
26312,162.0,70.0,160.0
26313,162.0,70.0,160.0
26314,162.0,76.0,160.0
26315,162.0,76.0,160.0
26316,162.0,76.0,160.0
26317,162.0,76.0,160.0
29018,969.0,1417.0,639.0
29019,1021.0,1417.0,639.0
29020,1021.0,1417.0,639.0
29021,530.0,1417.0,639.0
29022,472.0,1417.0,639.0
29023,472.0,1417.0,639.0
29024,723.0,1417.0,639.0
29025,1341.0,1417.0,639.0
29026,1341.0,1417.0,639.0
29027,1341.0,1417.0,639.0
29028,1388.0,1417.0,639.0
29029,1388.0,1417.0,639.0
29030,1797.0,1417.0,639.0
29031,1797.0,1417.0,639.0
29032,1980.0,1417.0,639.0
29033,1980.0,1417.0,639.0
29034,1980.0,1417.0,661.0
29035,1980.0,1417.0,661.0
29036,1980.0,1417.0,661.0
29037,1980.0,1417.0,661.0
29038,1980.0,1417.0,661.0
29039,1980.0,1417.0,661.0
29040,1980.0,1417.0,661.0
29041,1980.0,1417.0,661.0
29042,1980.0,1417.0,661.0
29043,1980.0,1417.0,661.0
29044,1980.0,2212.0,661.0
29045,1188.0,2212.0,661.0
29046,1188.0,2212.0,661.0
29047,1188.0,2212.0,661.0
29048,1136.0,2212.0,661.0
29049,1136.0,2212.0,661.0
29050,1136.0,2212.0,661.0
29051,1136.0,2212.0,661.0
29052,1136.0,2212.0,661.0
29053,933.0,2212.0,661.0
29054,933.0,2212.0,661.0
29055,1380.0,2212.0,661.0
29056,1380.0,2212.0,661.0
29057,1380.0,2212.0,661.0
29058,1380.0,2212.0,661.0
29059,1380.0,2212.0,661.0
29060,1380.0,2212.0,661.0
29061,1380.0,2212.0,661.0
29062,1631.0,2212.0,661.0
29063,505.0,2212.0,661.0
29064,505.0,2212.0,661.0
29065,1747.0,2212.0,661.0
29066,1747.0,2212.0,661.0
29067,975.0,2212.0,661.0
29068,975.0,2212.0,661.0
29069,975.0,2212.0,661.0
29070,1781.0,2212.0,661.0
29071,1145.0,2212.0,661.0
29072,1145.0,2212.0,661.0
29073,1145.0,2212.0,661.0
29074,1145.0,2212.0,661.0
29075,1145.0,2212.0,661.0
29076,1145.0,2212.0,661.0
29077,1145.0,2212.0,661.0
29078,1145.0,2212.0,661.0
29079,1145.0,864.0,661.0
29080,988.0,864.0,661.0
29081,988.0,864.0,661.0
29082,940.0,864.0,661.0
29083,940.0,864.0,661.0
29084,572.0,864.0,661.0
29085,572.0,1020.0,661.0
29086,572.0,1020.0,661.0
29087,572.0,1020.0,661.0
29088,572.0,1020.0,661.0
29089,572.0,1020.0,661.0
29090,572.0,1020.0,661.0
29091,572.0,1020.0,661.0
29092,572.0,1020.0,661.0
29093,572.0,1020.0,661.0
29094,572.0,1020.0,661.0
29095,572.0,1020.0,661.0
29096,572.0,1020.0,661.0
29097,572.0,1020.0,661.0
29098,572.0,1020.0,661.0
29099,2612.0,1020.0,661.0
29100,2612.0,1020.0,661.0
29101,2612.0,1020.0,661.0
29102,1694.0,1020.0,661.0
29103,1694.0,1020.0,661.0
29104,1694.0,1020.0,661.0
29105,1694.0,1020.0,661.0
29106,1694.0,1020.0,661.0
29107,1694.0,1020.0,661.0
29108,1694.0,1020.0,661.0
29109,1694.0,1020.0,661.0
29110,1694.0,1020.0,661.0
29111,1694.0,1020.0,661.0
29112,1404.0,1020.0,661.0
29113,1404.0,1576.0,661.0
29114,1404.0,1576.0,661.0
29115,1404.0,1576.0,661.0
29116,1404.0,1576.0,661.0
29117,1404.0,1576.0,661.0
29118,1404.0,1576.0,661.0
29119,1404.0,1576.0,661.0
29120,1404.0,1576.0,661.0
29121,2275.0,1576.0,661.0
29122,2275.0,1576.0,661.0
29123,2275.0,1576.0,661.0
29124,2275.0,1576.0,661.0
29125,2275.0,1576.0,661.0
29126,2275.0,1567.0,661.0
29127,2275.0,1567.0,661.0
29128,2275.0,1567.0,661.0
29129,2275.0,1038.0,661.0
29130,940.0,1038.0,661.0
29131,940.0,1038.0,661.0
29132,940.0,1038.0,661.0
29133,940.0,1038.0,661.0
29134,940.0,1038.0,661.0
29135,1163.0,1038.0,661.0
29136,1362.0,1038.0,661.0
29137,1362.0,1038.0,661.0
29138,1362.0,1038.0,661.0
29139,1362.0,1038.0,661.0
29140,1451.0,1038.0,661.0
29141,1451.0,1038.0,661.0
29142,1829.0,1038.0,661.0
29143,1829.0,1038.0,661.0
29144,1186.0,1038.0,661.0
29145,1186.0,1038.0,661.0
29146,1186.0,1038.0,661.0
29147,1186.0,1038.0,661.0
29148,1186.0,1038.0,661.0
29149,1186.0,1038.0,661.0
29150,1186.0,1038.0,661.0
29151,1186.0,1038.0,661.0
29152,1237.0,1038.0,661.0
29153,1133.0,1038.0,661.0
29154,1133.0,1038.0,661.0
29155,537.0,1046.0,661.0
29156,537.0,1046.0,661.0
29157,537.0,1046.0,661.0
29158,537.0,1046.0,661.0
29159,537.0,1046.0,661.0
29160,537.0,1046.0,661.0
29161,537.0,1046.0,661.0
29162,537.0,1046.0,661.0
29163,537.0,1046.0,661.0
29164,537.0,1046.0,661.0
29165,537.0,1046.0,661.0
29166,537.0,1046.0,661.0
29167,537.0,1046.0,661.0
29168,1566.0,1046.0,661.0
29169,1566.0,1046.0,661.0
29170,1249.0,1046.0,661.0
30812,161.0,1151.0,817.0
30813,161.0,252.0,817.0
30814,161.0,252.0,817.0
30815,161.0,252.0,817.0
30816,160.0,252.0,817.0
30817,208.0,252.0,817.0
30818,51.0,252.0,817.0
30819,153.0,252.0,817.0
30820,212.0,252.0,817.0
30821,212.0,252.0,817.0
30822,212.0,252.0,817.0
30823,212.0,227.0,817.0
30824,212.0,306.0,817.0
30825,212.0,306.0,817.0
30826,212.0,306.0,817.0
30827,212.0,510.0,817.0
30828,212.0,510.0,817.0
30829,212.0,598.0,817.0
30830,212.0,598.0,817.0
30831,212.0,333.0,817.0
30832,212.0,409.0,817.0
30833,212.0,409.0,817.0
30834,212.0,409.0,817.0
30835,212.0,409.0,817.0
30836,212.0,409.0,817.0
30837,212.0,409.0,817.0
30838,212.0,409.0,817.0
30839,212.0,409.0,817.0
30840,212.0,409.0,817.0
30841,212.0,409.0,817.0
30842,229.0,409.0,817.0
30843,229.0,409.0,817.0
30844,207.0,409.0,817.0
30845,207.0,409.0,817.0
30846,207.0,409.0,537.0
30847,207.0,409.0,537.0
30848,394.0,409.0,537.0
30849,394.0,409.0,537.0
30850,394.0,409.0,537.0
30851,394.0,409.0,537.0
30852,394.0,409.0,537.0
30853,394.0,409.0,537.0
30854,394.0,409.0,537.0
30855,394.0,409.0,537.0
30856,394.0,409.0,537.0
30857,368.0,409.0,537.0
30858,368.0,409.0,537.0
30859,249.0,409.0,537.0
30860,249.0,409.0,537.0
30861,249.0,845.0,537.0
30862,249.0,845.0,537.0
30863,249.0,845.0,537.0
30864,249.0,845.0,537.0
30865,249.0,845.0,537.0
30866,249.0,845.0,537.0
30867,249.0,845.0,537.0
30868,249.0,845.0,537.0
30869,249.0,845.0,537.0
30870,249.0,845.0,537.0
30871,249.0,845.0,537.0
30872,249.0,845.0,537.0
30873,249.0,845.0,537.0
30874,249.0,845.0,537.0
30875,249.0,845.0,537.0
30876,249.0,845.0,537.0
30877,249.0,845.0,537.0
30878,249.0,845.0,537.0
30879,249.0,566.0,537.0
30880,249.0,566.0,537.0
30881,249.0,566.0,537.0
30882,249.0,566.0,537.0
30883,249.0,566.0,537.0
30884,249.0,566.0,537.0
30885,249.0,566.0,537.0
30886,249.0,566.0,537.0
30887,249.0,566.0,537.0
30888,249.0,566.0,537.0
30889,249.0,566.0,537.0
30890,249.0,566.0,537.0
30891,249.0,566.0,537.0
30892,249.0,566.0,1027.0
30893,249.0,566.0,1027.0
30894,249.0,566.0,1027.0
30895,249.0,566.0,1027.0
30896,249.0,566.0,1027.0
30897,249.0,1836.0,1027.0
30898,249.0,1836.0,1027.0
30899,249.0,1836.0,1027.0
30900,249.0,1836.0,1027.0
30901,249.0,1836.0,1027.0
30902,249.0,1836.0,1027.0
30903,249.0,1131.0,1027.0
30904,249.0,2194.0,1027.0
30905,249.0,1667.0,1027.0
30906,249.0,1667.0,1027.0
30907,249.0,1667.0,1027.0
30908,249.0,1667.0,1027.0
30909,249.0,1667.0,1027.0
30910,249.0,1667.0,1027.0
30911,249.0,1667.0,1027.0
30912,249.0,1667.0,1027.0
30913,249.0,1667.0,1027.0
30914,249.0,1667.0,1027.0
30915,249.0,1667.0,1027.0
30916,249.0,1667.0,1027.0
30917,249.0,1667.0,1027.0
30918,249.0,1667.0,1027.0
30919,249.0,1667.0,1027.0
30920,249.0,1142.0,1027.0
30921,249.0,1012.0,1027.0
30922,249.0,1721.0,1027.0
30923,249.0,1721.0,1027.0
30924,249.0,1721.0,1027.0
30925,249.0,1721.0,1027.0
30926,249.0,1721.0,1027.0
30927,249.0,1721.0,1027.0
30928,249.0,1916.0,1027.0
30929,249.0,1916.0,1027.0
30930,249.0,1916.0,1027.0
30931,249.0,1916.0,1027.0
30932,249.0,1916.0,1027.0
30933,249.0,1916.0,1027.0
30934,249.0,1916.0,1027.0
30935,249.0,1916.0,1027.0
30936,629.0,1916.0,1027.0
30937,528.0,1916.0,1027.0
30938,528.0,1916.0,1027.0
30939,528.0,1916.0,1027.0
30940,528.0,1916.0,1027.0
30941,528.0,859.0,1027.0
30942,528.0,938.0,1027.0
30943,528.0,1416.0,1027.0
30944,528.0,1416.0,1027.0
30945,528.0,1275.0,1027.0
30946,528.0,1128.0,1027.0
30947,528.0,2027.0,1027.0
30948,528.0,2027.0,1027.0
30949,528.0,2027.0,1027.0
30950,528.0,903.0,1027.0
30951,528.0,345.0,1027.0
30952,528.0,345.0,1027.0
30953,528.0,1009.0,1027.0
30954,528.0,369.0,1027.0
30955,528.0,1245.0,1027.0
30956,528.0,1245.0,1027.0
30957,528.0,1245.0,1027.0
30958,528.0,1245.0,1027.0
30959,528.0,1279.0,1027.0
30960,528.0,1149.0,1027.0
30961,528.0,1149.0,1027.0
30962,528.0,1149.0,1027.0
30963,528.0,1149.0,1027.0
30964,528.0,1149.0,1027.0
33493,855.0,2101.0,292.0
33494,855.0,2101.0,1074.0
33495,855.0,2101.0,710.0
33496,855.0,2101.0,710.0
33497,855.0,2101.0,710.0
33498,855.0,2101.0,680.0
33499,855.0,2101.0,680.0
33500,855.0,2101.0,327.0
33501,1138.0,2101.0,327.0
33502,1138.0,2101.0,327.0
33503,1138.0,2101.0,772.0
33504,1138.0,2774.0,736.0
33505,1138.0,2774.0,736.0
33506,1138.0,4613.0,736.0
33507,1138.0,4613.0,1705.0
33508,2480.0,4613.0,1705.0
33509,2480.0,4613.0,2880.0
33510,3021.0,4613.0,2880.0
33511,3021.0,4613.0,2880.0
33512,3021.0,4803.0,2880.0
33513,3021.0,4803.0,2880.0
33514,3021.0,4803.0,2880.0
33515,3021.0,4803.0,2880.0
33516,312.0,4803.0,2880.0
33517,312.0,4803.0,2880.0
33518,312.0,79.0,2880.0
33519,312.0,79.0,2880.0
33520,312.0,79.0,2880.0
33521,312.0,79.0,2880.0
33522,312.0,79.0,2880.0
33523,312.0,79.0,2880.0
33524,312.0,79.0,2880.0
33525,12.0,79.0,310.0
33526,312.0,79.0,401.0
33527,312.0,79.0,401.0
33528,312.0,79.0,401.0
33529,312.0,79.0,401.0
33530,312.0,79.0,401.0
33531,122.0,79.0,401.0
33532,407.0,79.0,401.0
33533,407.0,79.0,481.0
33534,225.0,79.0,481.0
33535,225.0,79.0,387.0
33536,217.0,79.0,387.0
33537,217.0,79.0,387.0
33538,217.0,79.0,387.0
33539,217.0,79.0,387.0
33540,217.0,79.0,471.0
33541,217.0,79.0,471.0
33542,217.0,79.0,471.0
33543,217.0,79.0,471.0
33544,217.0,79.0,471.0
33545,225.0,79.0,471.0
33546,150.0,79.0,471.0
33547,150.0,79.0,832.0
33548,150.0,79.0,324.0
33549,150.0,79.0,324.0
33550,150.0,79.0,324.0
33551,184.0,79.0,324.0
33552,291.0,79.0,324.0
33553,291.0,79.0,324.0
33554,291.0,79.0,324.0
33555,150.0,79.0,324.0
33556,150.0,79.0,324.0
33557,150.0,79.0,324.0
33558,168.0,79.0,324.0
33559,168.0,79.0,324.0
33560,168.0,79.0,275.0
33561,168.0,79.0,275.0
33562,168.0,79.0,244.0
33563,168.0,79.0,244.0
33564,168.0,79.0,244.0
33565,168.0,79.0,244.0
33566,168.0,79.0,239.0
33567,168.0,79.0,239.0
33568,168.0,79.0,239.0
33569,144.0,79.0,239.0
33570,144.0,79.0,227.0
33571,144.0,79.0,227.0
33572,144.0,79.0,445.0
33573,144.0,79.0,445.0
33574,144.0,79.0,280.0
33575,144.0,79.0,660.0
33576,186.0,79.0,660.0
33577,189.0,79.0,660.0
33578,189.0,79.0,660.0
33579,237.0,79.0,660.0
33580,237.0,79.0,660.0
33581,203.0,79.0,660.0
33582,203.0,79.0,129.0
33583,203.0,79.0,129.0
33584,203.0,255.0,129.0
33585,203.0,255.0,129.0
33586,203.0,255.0,129.0
33587,203.0,255.0,129.0
33588,203.0,255.0,343.0
33589,203.0,255.0,343.0
33590,203.0,369.0,343.0
33591,203.0,389.0,343.0
33592,203.0,230.0,343.0
33593,203.0,230.0,718.0
33594,203.0,798.0,718.0
33595,203.0,798.0,212.0
33596,203.0,798.0,212.0
33597,62.0,798.0,212.0
33598,164.0,798.0,212.0
33599,164.0,798.0,212.0
33600,164.0,647.0,212.0
33601,164.0,321.0,212.0
33602,164.0,321.0,212.0
33603,164.0,459.0,212.0
33604,187.0,459.0,212.0
33605,187.0,459.0,212.0
33606,187.0,459.0,212.0
33607,187.0,459.0,212.0
33608,187.0,459.0,340.0
33609,277.0,459.0,340.0
33610,277.0,459.0,394.0
35286,257.0,323.0,99.0
35287,257.0,323.0,105.0
35288,257.0,323.0,105.0
35289,257.0,214.0,105.0
35290,257.0,438.0,105.0
35291,257.0,343.0,105.0
35292,573.0,343.0,105.0
35293,449.0,343.0,105.0
35294,449.0,343.0,105.0
35295,449.0,343.0,105.0
35296,449.0,253.0,105.0
35297,449.0,321.0,105.0
35298,449.0,321.0,105.0
35299,449.0,321.0,105.0
35300,263.0,321.0,105.0
35301,263.0,321.0,105.0
35302,387.0,321.0,105.0
35303,387.0,321.0,105.0
35304,387.0,321.0,105.0
35305,387.0,321.0,105.0
35306,387.0,321.0,105.0
35307,387.0,321.0,105.0
35308,387.0,305.0,105.0
35309,387.0,523.0,105.0
35310,387.0,523.0,105.0
35311,387.0,523.0,105.0
35312,387.0,221.0,105.0
35313,387.0,221.0,105.0
35314,387.0,221.0,105.0
35315,387.0,221.0,105.0
35316,387.0,196.0,105.0
35317,387.0,196.0,335.0
35318,387.0,196.0,335.0
35319,387.0,196.0,100.0
35320,387.0,196.0,100.0
35321,391.0,196.0,100.0
35322,391.0,221.0,100.0
35323,391.0,221.0,62.0
35324,391.0,221.0,62.0
35325,391.0,221.0,62.0
35326,189.0,221.0,62.0
35327,189.0,221.0,62.0
35328,189.0,221.0,62.0
35329,189.0,221.0,62.0
35330,189.0,221.0,62.0
35331,189.0,221.0,62.0
35332,189.0,221.0,62.0
35333,189.0,221.0,62.0
35334,189.0,221.0,62.0
35335,189.0,221.0,62.0
35336,304.0,221.0,72.0
35337,304.0,221.0,72.0
35338,304.0,221.0,72.0
35339,304.0,221.0,72.0
35340,304.0,221.0,73.0
35341,304.0,221.0,73.0
35342,397.0,221.0,73.0
35343,243.0,221.0,73.0
35344,3.0,221.0,73.0
35345,243.0,221.0,73.0
35346,243.0,221.0,109.0
35347,243.0,221.0,109.0
35348,243.0,221.0,109.0
35349,271.0,221.0,109.0
35350,271.0,221.0,109.0
35351,271.0,221.0,109.0
35352,271.0,221.0,109.0
35353,271.0,221.0,109.0
35354,271.0,221.0,109.0
35355,271.0,221.0,109.0
35356,271.0,221.0,109.0
35357,271.0,221.0,109.0
35358,271.0,221.0,185.0
35359,271.0,221.0,185.0
35360,271.0,221.0,185.0
35361,271.0,221.0,185.0
35362,271.0,221.0,185.0
35363,271.0,221.0,185.0
35364,271.0,286.0,185.0
35365,271.0,286.0,185.0
35366,271.0,286.0,185.0
35367,271.0,286.0,185.0
35368,271.0,286.0,185.0
35369,271.0,286.0,185.0
35370,271.0,348.0,230.0
35371,271.0,348.0,230.0
35372,271.0,323.0,230.0
35373,271.0,323.0,230.0
35374,271.0,323.0,230.0
35375,271.0,323.0,143.0
35376,271.0,323.0,143.0
35377,271.0,323.0,143.0
35378,271.0,323.0,143.0
35379,271.0,323.0,143.0
35380,271.0,323.0,143.0
35381,271.0,323.0,143.0
35382,271.0,153.0,93.0
35383,270.0,153.0,256.0
35384,271.0,153.0,256.0
35385,271.0,153.0,256.0
35386,271.0,153.0,256.0
35387,271.0,153.0,256.0
35388,271.0,153.0,124.0
35389,271.0,153.0,124.0
35390,288.0,153.0,124.0
35391,288.0,153.0,124.0
35392,517.0,153.0,124.0
35393,517.0,153.0,124.0
35394,405.0,153.0,124.0
35395,405.0,153.0,124.0
35396,432.0,153.0,124.0
35397,432.0,153.0,124.0
35398,432.0,153.0,147.0
35399,432.0,153.0,126.0
35400,432.0,153.0,126.0
35401,432.0,153.0,126.0
35402,432.0,153.0,126.0
35403,432.0,153.0,127.0
35404,432.0,153.0,127.0
35405,432.0,153.0,143.0
35406,432.0,153.0,139.0
35407,432.0,153.0,179.0
35408,432.0,153.0,179.0
35409,432.0,153.0,179.0
35410,432.0,153.0,221.0
35411,432.0,153.0,221.0
35412,305.0,153.0,221.0
35413,305.0,153.0,221.0
35414,328.0,153.0,221.0
35415,328.0,153.0,221.0
35416,319.0,153.0,221.0
35417,319.0,153.0,221.0
35418,511.0,153.0,221.0
35419,511.0,153.0,221.0
37051,457.0,1893.0,1915.0
37052,367.0,1893.0,1915.0
37053,367.0,1893.0,1915.0
37054,367.0,1893.0,1915.0
37055,367.0,1893.0,2534.0
37056,367.0,1893.0,3222.0
37057,367.0,1893.0,3222.0
37058,367.0,1893.0,2058.0
37059,367.0,1893.0,2058.0
37060,367.0,1893.0,2058.0
37061,367.0,1893.0,2058.0
37062,367.0,1893.0,2596.0
37063,367.0,1893.0,3656.0
37064,956.0,1893.0,1672.0
37065,956.0,1893.0,1672.0
37066,956.0,1893.0,2464.0
37067,956.0,1893.0,2464.0
37068,587.0,1893.0,2464.0
37069,587.0,1893.0,2464.0
37070,587.0,1893.0,2464.0
37071,587.0,1893.0,2464.0
37072,587.0,1893.0,2464.0
37073,587.0,1893.0,2464.0
37074,587.0,1893.0,2464.0
37075,587.0,1893.0,2464.0
37076,587.0,1893.0,2464.0
37077,587.0,1893.0,2464.0
37078,587.0,1893.0,2464.0
37079,587.0,1893.0,2464.0
37080,587.0,1893.0,399.0
37081,587.0,1893.0,399.0
37082,587.0,1893.0,399.0
37083,587.0,1893.0,399.0
37084,587.0,1893.0,399.0
37085,587.0,1893.0,399.0
37086,587.0,1893.0,399.0
37087,587.0,1644.0,399.0
37088,587.0,1644.0,1458.0
37089,587.0,1644.0,1947.0
37090,335.0,1644.0,1947.0
37091,335.0,1836.0,1947.0
37092,335.0,1836.0,1947.0
37093,335.0,1836.0,1947.0
37094,335.0,1152.0,1947.0
37095,335.0,2543.0,1485.0
37096,335.0,2543.0,1485.0
37097,335.0,2543.0,1485.0
37098,330.0,2543.0,1485.0
37099,335.0,2543.0,1485.0
37100,335.0,2543.0,1485.0
37101,335.0,2543.0,1485.0
37102,335.0,2543.0,1485.0
37103,335.0,2543.0,1485.0
37104,335.0,2543.0,1185.0
37105,5.0,2543.0,1185.0
37106,33335.0,2543.0,1185.0
37107,335.0,2543.0,1185.0
37108,1010.0,2543.0,1185.0
37109,1010010.0,2543.0,1185.0
37110,715.0,2543.0,2330.0
37111,715.0,2543.0,2330.0
37112,55556.0,2543.0,2330.0
37113,556.0,2543.0,1878.0
37114,556.0,2543.0,1878.0
37115,556.0,2543.0,1878.0
37116,556.0,2543.0,1878.0
37117,556.0,2543.0,1878.0
37118,556.0,2543.0,1809.0
37119,556.0,2543.0,1809.0
37120,556.0,2543.0,1809.0
37121,556.0,2543.0,1809.0
37122,556.0,2543.0,1809.0
37123,556.0,2543.0,1809.0
37124,556.0,2543.0,1809.0
37125,556.0,2543.0,1809.0
37126,556.0,2543.0,1809.0
37127,556.0,2543.0,1809.0
37128,556.0,2543.0,1809.0
37129,55556.0,2543.0,1156.0
37130,556.0,2543.0,1156.0
37131,556.0,2543.0,1156.0
37132,556.0,2543.0,1156.0
37133,556.0,2543.0,1156.0
37134,556.0,2543.0,1156.0
37135,5556.0,2543.0,1156.0
37136,556.0,2543.0,1156.0
37137,556.0,2543.0,1156.0
37138,556.0,2543.0,1156.0
37139,556.0,2543.0,1156.0
37140,556.0,2442.0,1156.0
37141,556.0,2442.0,1156.0
37142,556.0,2442.0,1156.0
37143,556.0,752.0,1156.0
37144,556.0,752.0,1156.0
37145,556.0,2270.0,1156.0
37146,556.0,2270.0,1156.0
37147,556.0,1426.0,1156.0
37148,556.0,1426.0,1156.0
37149,556.0,1426.0,1156.0
37150,556.0,1426.0,1156.0
37151,556.0,1426.0,1156.0
37152,556.0,1426.0,1156.0
37153,556.0,1426.0,1156.0
37154,556.0,1426.0,1156.0
37155,556.0,1426.0,1156.0
37156,556.0,1426.0,1156.0
37157,556.0,855.0,1156.0
37158,556.0,855.0,1156.0
37159,556.0,855.0,1156.0
37160,556.0,906.0,1156.0
37161,556.0,906.0,1156.0
37162,556.0,1090.0,1156.0
37163,556.0,1090.0,1156.0
37164,556.0,907.0,1156.0
37165,556.0,907.0,1156.0
37166,556.0,907.0,1340.0
37167,556.0,907.0,1340.0
37168,556.0,557.0,1340.0
37169,556.0,782.0,1340.0
37170,556.0,782.0,1340.0
37171,556.0,782.0,1340.0
37172,556.0,782.0,2182.0
37173,556.0,782.0,2182.0
37174,556.0,782.0,2182.0
37175,556.0,782.0,2182.0
37176,556.0,782.0,2182.0
37177,556.0,782.0,2182.0
37178,556.0,782.0,2182.0
38967,600.0,1033.0,1606.0
38968,600.0,1033.0,2231.0
38969,650.0,1033.0,2231.0
38970,760.0,1033.0,1090.0
38971,760.0,1033.0,1090.0
38972,760.0,1033.0,1090.0
38973,760.0,1033.0,1090.0
38974,760.0,1033.0,1090.0
38975,760.0,1033.0,1090.0
38976,760.0,1033.0,1090.0
38977,760.0,1033.0,1090.0
38978,760.0,1033.0,2256.0
38979,760.0,1033.0,2256.0
38980,760.0,1033.0,2256.0
38981,760.0,1033.0,2799.0
38982,76760.0,1033.0,2799.0
38983,760.0,1033.0,2799.0
38984,760.0,1033.0,2799.0
38985,760.0,1033.0,2799.0
38986,760.0,1033.0,2799.0
38987,760.0,1033.0,2799.0
38988,760.0,1289.0,2799.0
38989,760.0,1289.0,2799.0
38990,760.0,747.0,2799.0
38991,760.0,747.0,2799.0
38992,760.0,838.0,2799.0
38993,760.0,838.0,2799.0
38994,760.0,838.0,2799.0
38995,760.0,838.0,2799.0
38996,811.0,838.0,2799.0
38997,811.0,838.0,2799.0
38998,975.0,838.0,2799.0
38999,309.0,838.0,2799.0
39000,309.0,838.0,2799.0
39001,309.0,838.0,2799.0
39002,415.0,798.0,2799.0
39003,415.0,798.0,2799.0
39004,415.0,798.0,2799.0
39005,415.0,798.0,2799.0
39006,415.0,798.0,2799.0
39007,415.0,798.0,2799.0
39008,415.0,873.0,2799.0
39009,415.0,873.0,2799.0
39010,415.0,873.0,2799.0
39011,415.0,2273.0,2799.0
39012,415.0,2273.0,2799.0
39013,415.0,2273.0,2129.0
39014,415.0,2273.0,2129.0
39015,415.0,2273.0,2129.0
39016,415.0,2273.0,2129.0
39017,415.0,2273.0,2424.0
39018,41500.0,2273.0,2424.0
39019,415.0,2273.0,2424.0
39020,415.0,2273.0,2424.0
39021,415.0,2273.0,1387.0
39022,415.0,2273.0,1387.0
39023,415.0,2273.0,1387.0
39024,415.0,2273.0,1387.0
39025,415.0,2273.0,1387.0
39026,415.0,2109.0,1387.0
39027,415.0,2109.0,1387.0
39028,415.0,2109.0,1387.0
39029,415.0,2109.0,1387.0
39030,415.0,2109.0,1387.0
39031,415.0,2109.0,1387.0
39032,415.0,2224.0,1387.0
39033,415.0,2224.0,1387.0
39034,415.0,2224.0,1387.0
39035,415.0,2224.0,1387.0
39036,415.0,2224.0,1653.0
39037,589.0,2224.0,1653.0
39038,589.0,2224.0,1653.0
39039,589.0,2224.0,1653.0
39040,589.0,2224.0,1653.0
39041,589.0,2224.0,1653.0
39042,589.0,2224.0,1653.0
39043,4159.0,2224.0,1653.0
39044,5857.0,2224.0,1653.0
39045,457.0,2224.0,1653.0
39046,457.0,2224.0,2082.0
39047,457.0,2224.0,2082.0
39048,457.0,2224.0,2082.0
39049,1016.0,2224.0,2082.0
39050,400.0,2224.0,2082.0
39051,1016.0,2224.0,2082.0
39052,1016.0,2224.0,2082.0
39053,1016.0,2068.0,2082.0
39054,1016.0,662.0,2082.0
39055,1016.0,662.0,2082.0
39056,1016.0,1090.0,2082.0
39057,1016.0,1090.0,2082.0
39058,1016.0,1090.0,2082.0
39059,1016.0,1090.0,2082.0
39060,1016.0,1090.0,2082.0
39061,1016.0,1090.0,2082.0
39062,1016.0,1090.0,2082.0
39063,855.0,1090.0,2082.0
39064,855.0,1090.0,2082.0
39065,855.0,1090.0,2082.0
39066,855.0,1090.0,2082.0
39067,855.0,1090.0,2082.0
39068,855.0,1090.0,2082.0
39069,855.0,1797.0,2082.0
39070,925.0,1797.0,2082.0
39071,925.0,1797.0,2082.0
39072,925.0,1797.0,2082.0
39073,925.0,1797.0,2082.0
39074,925.0,1797.0,2082.0
39075,925.0,1437.0,2082.0
39076,925.0,1437.0,2082.0
39077,925.0,1437.0,2082.0
39078,925.0,1437.0,2082.0
39079,925.0,1437.0,2082.0
39080,925.0,1437.0,2082.0
39081,473.0,1437.0,2082.0
39082,473.0,1437.0,2082.0
39083,473.0,1437.0,2082.0
39084,473.0,1437.0,3569.0
39085,473.0,1437.0,3569.0
39086,473.0,1797.0,3569.0
39087,473.0,1797.0,3569.0
39088,473.0,1797.0,3569.0
39089,473.0,1797.0,3569.0
39090,473.0,1797.0,3569.0
39091,473.0,1797.0,3569.0
39092,473.0,1797.0,3569.0
39093,473.0,1797.0,3569.0
42093,426.0,199.0,809.0
42094,426.0,199.0,809.0
42095,426.0,199.0,809.0
42096,426.0,199.0,809.0
42097,426.0,199.0,809.0
42098,426.0,199.0,809.0
42099,426.0,199.0,809.0
42100,426.0,199.0,809.0
42101,426.0,199.0,809.0
42102,426.0,199.0,809.0
42103,606.0,199.0,809.0
42104,606.0,199.0,809.0
42105,397.0,199.0,809.0
42106,397.0,199.0,809.0
42107,397.0,199.0,809.0
42108,397.0,199.0,809.0
42109,397.0,199.0,809.0
42110,938.0,199.0,809.0
42111,776.0,199.0,809.0
42112,776.0,199.0,809.0
42113,776.0,199.0,809.0
42114,886.0,199.0,809.0
42115,886.0,199.0,809.0
42116,886.0,199.0,809.0
42117,886.0,199.0,809.0
42118,886.0,199.0,623.0
42119,886.0,199.0,623.0
42120,886.0,199.0,623.0
42121,886.0,199.0,623.0
42122,886.0,199.0,315.0
42123,886.0,199.0,315.0
42124,886.0,199.0,315.0
42125,886.0,199.0,315.0
42126,886.0,199.0,315.0
42127,886.0,199.0,315.0
42128,886.0,199.0,315.0
42129,886.0,199.0,315.0
42130,886.0,199.0,315.0
42131,886.0,199.0,315.0
42132,886.0,199.0,315.0
42133,715.0,199.0,315.0
42134,715.0,199.0,315.0
42135,715.0,199.0,315.0
42136,715.0,199.0,315.0
42137,715.0,199.0,315.0
42138,715.0,199.0,315.0
42139,586.0,199.0,315.0
42140,586.0,199.0,315.0
42141,586.0,199.0,315.0
42142,586.0,199.0,315.0
42143,586.0,199.0,315.0
42144,586.0,199.0,315.0
42145,586.0,199.0,315.0
42146,586.0,199.0,315.0
42147,586.0,199.0,315.0
42148,586.0,199.0,315.0
42149,586.0,199.0,315.0
42150,586.0,199.0,315.0
42151,660.0,199.0,315.0
42152,660.0,199.0,315.0
42153,1059.0,199.0,315.0
42154,1059.0,199.0,315.0
42155,1059.0,199.0,315.0
42156,715.0,199.0,315.0
42157,715.0,199.0,315.0
42158,715.0,199.0,315.0
42159,715.0,199.0,315.0
42160,867.0,199.0,315.0
42161,867.0,199.0,315.0
42162,1128.0,199.0,315.0
42163,1128.0,199.0,315.0
42164,602.0,199.0,315.0
42165,602.0,199.0,315.0
42166,400.0,199.0,315.0
42167,400.0,199.0,315.0
42168,400.0,199.0,315.0
42169,351.0,199.0,315.0
42170,351.0,199.0,315.0
42171,248.0,199.0,315.0
42172,248.0,199.0,315.0
42173,370.0,199.0,315.0
42174,370.0,199.0,315.0
42175,883.0,199.0,315.0
42176,883.0,199.0,315.0
42177,883.0,199.0,315.0
42178,883.0,199.0,315.0
42179,883.0,199.0,315.0
42180,883.0,199.0,315.0
42181,567.0,199.0,315.0
42182,567.0,199.0,315.0
42183,564.0,199.0,315.0
42184,564.0,199.0,315.0
42185,1477.0,199.0,315.0
42186,1477.0,199.0,315.0
42187,1477.0,199.0,315.0
42188,612.0,199.0,315.0
42189,612.0,199.0,315.0
42190,612.0,199.0,315.0
42191,612.0,199.0,315.0
42192,612.0,199.0,315.0
42193,612.0,199.0,315.0
42194,813.0,199.0,315.0
42195,813.0,199.0,315.0
42196,735.0,199.0,315.0
42197,735.0,199.0,315.0
42198,735.0,199.0,315.0
42199,735.0,199.0,315.0
42200,735.0,199.0,315.0
42201,735.0,199.0,315.0
42202,735.0,199.0,315.0
42203,591.0,199.0,315.0
42204,591.0,199.0,315.0
42205,591.0,199.0,315.0
42206,591.0,199.0,315.0
42207,591.0,199.0,315.0
42208,624.0,199.0,315.0
42209,788.0,199.0,315.0
42210,788.0,199.0,315.0
42211,354.0,199.0,315.0
42212,354.0,199.0,315.0
42213,354.0,199.0,315.0
42214,354.0,199.0,315.0
42215,354.0,199.0,315.0
42216,354.0,199.0,315.0
42217,354.0,199.0,315.0
42218,354.0,199.0,315.0
42219,966.0,199.0,315.0
42220,229.0,199.0,315.0
42221,229.0,199.0,315.0
42222,229.0,199.0,315.0
42223,229.0,199.0,315.0
42224,229.0,199.0,315.0
42225,229.0,199.0,315.0
42226,229.0,199.0,315.0
42227,229.0,199.0,315.0
42228,229.0,199.0,315.0
42229,229.0,199.0,315.0
42230,967.0,199.0,315.0
42231,967.0,199.0,315.0
42232,401.0,199.0,315.0
42233,401.0,199.0,315.0
42234,858.0,199.0,315.0
42235,858.0,199.0,315.0
42236,858.0,199.0,315.0
42237,858.0,199.0,315.0
42238,858.0,199.0,315.0
42239,858.0,199.0,315.0
42240,559.0,199.0,315.0
42241,559.0,199.0,315.0
42242,777.0,199.0,315.0
42243,777.0,199.0,315.0
42244,602.0,199.0,315.0
42245,602.0,199.0,315.0
42246,602.0,199.0,315.0
42247,602.0,199.0,315.0
42248,602.0,199.0,315.0
42249,602.0,199.0,315.0
43893,2847.0,1462.0,1478.0
43894,47.0,1462.0,1478.0
43895,2847.0,1462.0,1478.0
43896,2847.0,1462.0,1478.0
43897,2847.0,1462.0,1478.0
43898,2847.0,1462.0,1478.0
43899,2280.0,1462.0,1478.0
43900,2847.0,2439.0,1478.0
43901,2847.0,2439.0,1478.0
43902,2847.0,2439.0,804.0
43903,2847.0,2439.0,804.0
43904,2847.0,2439.0,804.0
43905,2847.0,2439.0,804.0
43906,2847.0,2439.0,804.0
43907,2847.0,1927.0,804.0
43908,2847.0,1927.0,804.0
43909,2847.0,1927.0,804.0
43910,2847.0,1927.0,804.0
43911,2847.0,1927.0,804.0
43912,2847.0,1927.0,804.0
43913,709.0,2110.0,804.0
43914,709.0,2110.0,804.0
43915,709.0,2110.0,1012.0
43916,709.0,2110.0,1012.0
43917,709.0,2110.0,1012.0
43918,1535.0,2110.0,1012.0
43919,1535.0,1693.0,1012.0
43920,1535.0,1693.0,1012.0
43921,1535.0,1693.0,662.0
43922,1535.0,1693.0,662.0
43923,1535.0,1693.0,662.0
43924,1535.0,1693.0,662.0
43925,1535.0,1693.0,662.0
43926,1535.0,1693.0,1497.0
43927,1535.0,1693.0,1497.0
43928,1535.0,1693.0,1497.0
43929,1535.0,1693.0,1497.0
43930,1535.0,1693.0,1497.0
43931,1535.0,1693.0,1497.0
43932,1535.0,1693.0,1497.0
43933,1535.0,1693.0,1497.0
43934,1535.0,2408.0,770.0
43935,1535.0,2408.0,770.0
43936,1535.0,2408.0,322.0
43937,1535.0,2408.0,322.0
43938,1535.0,1753.0,322.0
43939,1535.0,1753.0,627.0
43940,1535.0,794.0,627.0
43941,1535.0,794.0,1238.0
43942,1535.0,794.0,1238.0
43943,1535.0,2062.0,790.0
43944,1535.0,2062.0,790.0
43945,1535.0,2062.0,1139.0
43946,1535.0,2062.0,1139.0
43947,1535.0,2062.0,1139.0
43948,1535.0,2062.0,1139.0
43949,1535.0,1828.0,1139.0
43950,1535.0,1828.0,1139.0
43951,1535.0,1828.0,1139.0
43952,1535.0,1828.0,1139.0
43953,1535.0,1828.0,1139.0
43954,1535.0,1964.0,1139.0
43955,1535.0,1964.0,1139.0
43956,1535.0,1964.0,1139.0
43957,1535.0,1964.0,617.0
43958,1535.0,1964.0,617.0
43959,1535.0,1964.0,617.0
43960,1535.0,1964.0,617.0
43961,1535.0,1964.0,707.0
43962,1535.0,1964.0,707.0
43963,1535.0,1964.0,707.0
43964,1535.0,1964.0,707.0
43965,1535.0,1964.0,268.0
43966,1535.0,1964.0,268.0
43967,1535.0,1964.0,268.0
43968,2093.0,1964.0,268.0
43969,2093.0,1964.0,268.0
43970,2093.0,1964.0,268.0
43971,3020.0,1964.0,268.0
43972,3020.0,1964.0,268.0
43973,3020.0,1964.0,268.0
43974,3020.0,1964.0,268.0
43975,3020.0,1964.0,268.0
43976,3020.0,1964.0,268.0
43977,3020.0,1964.0,268.0
43978,3020.0,1964.0,268.0
43979,3020.0,1964.0,268.0
43980,3020.0,1964.0,268.0
43981,3020.0,1964.0,268.0
43982,3020.0,1964.0,268.0
43983,3020.0,1964.0,983.0
43984,3020.0,1964.0,1399.0
43985,3020.0,1964.0,1399.0
43986,3020.0,1964.0,1399.0
43987,3020.0,1964.0,1399.0
43988,3020.0,1964.0,1399.0
43989,1458.0,1964.0,1399.0
43990,1458.0,1964.0,1399.0
43991,1458.0,1964.0,1399.0
43992,1458.0,1964.0,1399.0
43993,1458.0,1964.0,1399.0
43994,153.0,1964.0,1399.0
43995,14581458.0,1964.0,1399.0
43996,1458.0,1964.0,1399.0
43997,1458.0,1964.0,1399.0
43998,3355.0,1964.0,1399.0
43999,3355.0,1964.0,1399.0
44000,3355.0,1964.0,576.0
44001,3355.0,1964.0,576.0
44002,3355.0,1303.0,576.0
44003,3355.0,1303.0,576.0
44004,2253.0,1303.0,576.0
44005,2253.0,1303.0,576.0
44006,2253.0,1303.0,576.0
44007,1750.0,1303.0,576.0
44008,1750.0,1303.0,576.0
44009,1750.0,1303.0,576.0
44010,1750.0,1303.0,576.0
44011,1750.0,1303.0,576.0
44012,1750.0,2896.0,576.0
44013,1750.0,2896.0,576.0
44014,1750.0,2896.0,576.0
44015,1750.0,1855.0,576.0
44016,1750.0,1855.0,576.0
44017,1750.0,1441.0,576.0
44018,1286.0,1441.0,576.0
44019,1286.0,1441.0,576.0
44020,1286.0,1419.0,576.0
44021,1286.0,1419.0,576.0
44022,1565.0,1419.0,576.0
44023,1565.0,1419.0,576.0
44024,3299.0,1419.0,576.0
44025,3299.0,1419.0,576.0
44026,4008.0,1419.0,576.0
44027,4008.0,1419.0,576.0
44028,4008.0,1419.0,576.0
44029,2325.0,1419.0,576.0
44030,2325.0,1419.0,576.0
44031,2325.0,1419.0,809.0
44032,2325.0,1419.0,1296.0
44033,2325.0,1419.0,1296.0
45816,2202.0,1463.0,810.0
45817,2202.0,1463.0,810.0
45818,2202.0,1463.0,810.0
45819,2202.0,1463.0,810.0
45820,2202.0,1463.0,461.0
45821,2202.0,1463.0,461.0
45822,2202.0,1463.0,461.0
45823,2202.0,1463.0,461.0
45824,2202.0,1463.0,461.0
45825,2452.0,1463.0,461.0
45826,2452.0,1463.0,461.0
45827,2452.0,1463.0,461.0
45828,2452.0,1463.0,461.0
45829,2452.0,1463.0,461.0
45830,2452.0,1463.0,461.0
45831,2452.0,1463.0,461.0
45832,2452.0,1463.0,461.0
45833,2452.0,1463.0,461.0
45834,2452.0,1463.0,656.0
45835,2452.0,1463.0,656.0
45836,2452.0,1463.0,615.0
45837,1842.0,1463.0,615.0
45838,1842.0,1463.0,464.0
45839,1842.0,1463.0,464.0
45840,1842.0,1463.0,464.0
45841,2623.0,1463.0,464.0
45842,2623.0,1463.0,464.0
45843,2623.0,1463.0,464.0
45844,2623.0,1463.0,464.0
45845,2623.0,1463.0,1615.0
45846,2623.0,1463.0,1615.0
45847,2623.0,1463.0,1615.0
45848,2623.0,1842.0,1615.0
45849,2623.0,1842.0,951.0
45850,2623.0,1842.0,951.0
45851,2623.0,1676.0,951.0
45852,2623.0,2096.0,951.0
45853,2623.0,2096.0,951.0
45854,2623.0,2096.0,951.0
45855,2623.0,1229.0,951.0
45856,2623.0,1229.0,951.0
45857,2623.0,1777.0,951.0
45858,2623.0,1777.0,951.0
45859,2623.0,1637.0,951.0
45860,2623.0,1637.0,951.0
45861,2623.0,1637.0,951.0
45862,2623.0,1637.0,951.0
45863,2623.0,1637.0,951.0
45864,2623.0,1110.0,951.0
45865,2623.0,1110.0,951.0
45866,2623.0,622.0,951.0
45867,2623.0,622.0,450.0
45868,2623.0,622.0,251.0
45869,2623.0,622.0,251.0
45870,2623.0,622.0,251.0
45871,2623.0,622.0,251.0
45872,2623.0,622.0,251.0
45873,2623.0,622.0,251.0
45874,2623.0,622.0,251.0
45875,277.0,1218.0,251.0
45876,2623.0,1218.0,251.0
45877,2623.0,1218.0,251.0
45878,2623.0,1218.0,676.0
45879,2623.0,1218.0,676.0
45880,2623.0,1218.0,762.0
45881,2623.0,1218.0,762.0
45882,2623.0,1218.0,762.0
45883,2623.0,1218.0,762.0
45884,2623.0,2090.0,762.0
45885,2623.0,2090.0,762.0
45886,2623.0,554.0,762.0
45887,2623.0,554.0,762.0
45888,2623.0,554.0,762.0
45889,2623.0,554.0,762.0
45890,2623.0,554.0,762.0
45891,2623.0,554.0,762.0
45892,2623.0,2563.0,762.0
45893,2623.0,2563.0,762.0
45894,2623.0,2563.0,762.0
45895,2623.0,2563.0,762.0
45896,2623.0,2563.0,1116.0
45897,2623.0,2563.0,1116.0
45898,2623.0,2563.0,387.0
45899,2623.0,2563.0,387.0
45900,2623.0,2563.0,913.0
45901,2623.0,2563.0,913.0
45902,2623.0,2563.0,913.0
45903,2623.0,2563.0,913.0
45904,2623.0,2563.0,429.0
45905,2623.0,2563.0,221.0
45906,2623.0,2563.0,221.0
45907,2623.0,2563.0,1078.0
45908,2623.0,2563.0,1078.0
45909,2623.0,2563.0,544.0
45910,2623.0,2563.0,544.0
45911,2623.0,2563.0,544.0
45912,2623.0,2563.0,544.0
45913,2623.0,2563.0,544.0
45914,2623.0,2563.0,544.0
45915,2623.0,2563.0,822.0
45916,2623.0,2563.0,822.0
45917,2623.0,2563.0,900.0
45918,2623.0,2563.0,900.0
45919,2623.0,2563.0,900.0
45920,2623.0,2563.0,900.0
45921,2623.0,2563.0,1020.0
45922,2623.0,2563.0,1020.0
45923,2623.0,2563.0,1020.0
45924,2623.0,1096.0,1020.0
45925,2623.0,1158.0,1020.0
45926,2623.0,1158.0,1020.0
45927,2623.0,1158.0,1020.0
45928,2623.0,1158.0,765.0
45929,2623.0,1158.0,719.0
45930,2623.0,1158.0,719.0
45931,2623.0,1158.0,719.0
45932,2623.0,1158.0,719.0
45933,2623.0,1158.0,719.0
45934,2623.0,1158.0,719.0
45935,3601.0,1406.0,719.0
45936,3601.0,1406.0,719.0
45937,3601.0,1406.0,719.0
45938,3601.0,1406.0,719.0
45939,3601.0,1406.0,719.0
45940,3601.0,1406.0,719.0
45941,3601.0,1406.0,719.0
45942,3601.0,1406.0,291.0
45943,3600.0,1510.0,291.0
45944,3601.0,1896.0,291.0
45945,3601.0,1896.0,291.0
45946,2202.0,1896.0,869.0
45947,2202.0,1896.0,869.0
45948,2202.0,1896.0,735.0
45949,2202.0,1896.0,735.0
45950,2202.0,1896.0,673.0
45951,2202.0,1896.0,363.0
45952,2202.0,1896.0,363.0
45953,2202.0,1896.0,313.0
45954,2202.0,1896.0,788.0
47564,587.0,792.0,324.0
47565,587.0,792.0,324.0
47566,587.0,792.0,324.0
47567,587.0,792.0,324.0
47568,587.0,792.0,324.0
47569,587.0,510.0,324.0
47570,587.0,510.0,190.0
47571,587.0,510.0,190.0
47572,587.0,510.0,190.0
47573,587.0,510.0,127.0
47574,587.0,510.0,169.0
47575,587.0,510.0,146.0
47576,587.0,510.0,146.0
47577,587.0,510.0,146.0
47578,587.0,510.0,232.0
47579,587.0,510.0,232.0
47580,587.0,510.0,232.0
47581,453.0,510.0,232.0
47582,453.0,510.0,232.0
47583,453.0,510.0,232.0
47584,453.0,510.0,232.0
47585,453.0,510.0,232.0
47586,453.0,510.0,232.0
47587,453.0,510.0,232.0
47588,453.0,510.0,232.0
47589,453.0,510.0,232.0
47590,453.0,510.0,232.0
47591,453.0,510.0,232.0
47592,453.0,510.0,232.0
47593,453.0,789.0,232.0
47594,453.0,789.0,425.0
47595,453.0,789.0,425.0
47596,453.0,789.0,425.0
47597,453.0,735.0,469.0
47598,453.0,735.0,165.0
47599,453.0,735.0,216.0
47600,453.0,735.0,216.0
47601,453.0,735.0,216.0
47602,453.0,735.0,216.0
47603,453.0,735.0,202.0
47604,453.0,735.0,202.0
47605,453.0,735.0,202.0
47606,453.0,735.0,202.0
47607,453.0,735.0,202.0
47608,453.0,735.0,329.0
47609,453.0,735.0,329.0
47610,453.0,735.0,329.0
47611,453.0,735.0,130.0
47612,453.0,735.0,268.0
47613,453.0,735.0,184.0
47614,453.0,735.0,184.0
47615,453.0,735.0,184.0
47616,453.0,735.0,370.0
47617,453.0,735.0,370.0
47618,453.0,735.0,370.0
47619,453.0,735.0,370.0
47620,453.0,735.0,77.0
47621,453.0,735.0,77.0
47622,453.0,735.0,77.0
47623,453.0,735.0,155.0
47624,453.0,957.0,155.0
47625,453.0,957.0,155.0
47626,453.0,819.0,120.0
47627,453.0,819.0,120.0
47628,453.0,819.0,138.0
47629,453.0,819.0,138.0
47630,453.0,865.0,138.0
47631,453.0,865.0,70.0
47632,453.0,865.0,342.0
47633,453.0,865.0,342.0
47634,453.0,717.0,163.0
47635,453.0,717.0,163.0
47636,453.0,601.0,163.0
47637,453.0,1140.0,163.0
47638,453.0,1140.0,163.0
47639,453.0,1140.0,163.0
47640,453.0,1140.0,163.0
47641,453.0,1140.0,163.0
47642,453.0,1140.0,163.0
47643,453.0,1140.0,163.0
47644,453.0,1140.0,163.0
47645,453.0,1140.0,163.0
47646,453.0,1140.0,163.0
47647,453.0,1140.0,163.0
47648,400.0,1140.0,163.0
47649,453.0,1140.0,163.0
47650,453.0,1140.0,163.0
47651,453.0,1140.0,163.0
47652,453.0,1140.0,163.0
47653,453.0,825.0,163.0
47654,453.0,1065.0,163.0
47655,453.0,1065.0,163.0
47656,453.0,1065.0,163.0
47657,453.0,1065.0,163.0
47658,453.0,1065.0,163.0
47659,453.0,1065.0,163.0
47660,453.0,1471.0,163.0
47661,453.0,1471.0,163.0
47662,453.0,1471.0,163.0
47663,453.0,1471.0,184.0
47664,453.0,1471.0,184.0
47665,453.0,1471.0,184.0
47666,453.0,1471.0,97.0
47667,453.0,1471.0,97.0
47668,453.0,1471.0,128.0
47669,450.0,1471.0,153.0
47670,453.0,1471.0,153.0
47671,41453.0,435.0,153.0
47672,453.0,435.0,153.0
47673,453.0,435.0,153.0
47674,453.0,435.0,153.0
47675,453.0,435.0,153.0
47676,453.0,435.0,170.0
47677,453.0,435.0,170.0
47678,453.0,435.0,170.0
47679,453.0,1477.0,170.0
47680,453.0,1477.0,170.0
47681,453.0,1477.0,170.0
47682,453.0,1477.0,170.0
47683,453.0,1477.0,170.0
47684,453.0,1477.0,84.0
47685,453.0,1477.0,300.0
47686,453.0,1477.0,300.0
47687,453.0,1477.0,161.0
47688,453.0,1477.0,161.0
47689,453.0,1477.0,161.0
47690,453.0,1477.0,161.0
47691,453.0,1477.0,250.0
47692,453.0,1477.0,250.0
47693,453.0,1477.0,75.0
47694,453.0,1477.0,75.0
47695,453.0,811.0,75.0
47696,453.0,811.0,75.0
49011,560.0,353.0,262.0
49012,560.0,353.0,262.0
49013,560.0,353.0,262.0
49014,560.0,353.0,262.0
49015,560.0,353.0,262.0
49016,560.0,353.0,262.0
49017,560.0,353.0,262.0
49018,560.0,353.0,527.0
49019,560.0,353.0,527.0
49020,560.0,353.0,527.0
49021,560.0,353.0,527.0
49022,831.0,353.0,527.0
49023,831.0,353.0,527.0
49024,831.0,353.0,527.0
49025,831.0,353.0,527.0
49026,831.0,353.0,523.0
49027,831.0,353.0,523.0
49028,831.0,353.0,523.0
49029,831.0,353.0,523.0
49030,831.0,353.0,560.0
49031,831.0,353.0,560.0
49032,831.0,104.0,560.0
49033,831.0,104.0,560.0
49034,831.0,104.0,560.0
49035,831.0,187.0,560.0
49036,831.0,187.0,560.0
49037,831.0,187.0,560.0
49038,8831.0,187.0,560.0
49039,831.0,187.0,560.0
49040,788.0,187.0,560.0
49041,773.0,187.0,560.0
49042,773.0,187.0,199.0
49043,773.0,187.0,199.0
49044,773.0,187.0,583.0
49045,773.0,187.0,583.0
49046,773.0,187.0,583.0
49047,773.0,187.0,583.0
49048,773.0,187.0,523.0
49049,773.0,187.0,523.0
49050,773.0,187.0,523.0
49051,773.0,187.0,523.0
49052,773.0,187.0,523.0
49053,773.0,187.0,523.0
49054,773.0,187.0,523.0
49055,773.0,187.0,523.0
49056,773.0,187.0,523.0
49057,773.0,187.0,523.0
49058,773.0,187.0,523.0
49059,773.0,187.0,523.0
49060,773.0,187.0,523.0
49061,773.0,187.0,523.0
49062,773.0,106.0,523.0
49063,773.0,106.0,523.0
49064,773.0,106.0,523.0
49065,847.0,106.0,523.0
49066,847.0,106.0,523.0
49067,847.0,106.0,523.0
49068,926.0,106.0,523.0
49069,926.0,106.0,523.0
49070,926.0,106.0,523.0
49071,926.0,106.0,523.0
49072,926.0,106.0,523.0
49073,926.0,106.0,523.0
49074,926.0,106.0,523.0
49075,926.0,106.0,523.0
49076,649.0,106.0,523.0
49077,649.0,106.0,523.0
49078,649.0,106.0,523.0
49079,519.0,106.0,523.0
49080,519.0,106.0,523.0
49081,1061.0,106.0,523.0
49082,914.0,106.0,523.0
49083,914.0,106.0,523.0
49084,346.0,106.0,523.0
49085,346.0,106.0,523.0
49086,667.0,106.0,523.0
49087,667.0,106.0,523.0
49088,667.0,106.0,523.0
49089,667.0,106.0,523.0
49090,667.0,106.0,523.0
49091,667.0,106.0,523.0
49092,667.0,106.0,523.0
49093,1527.0,106.0,523.0
49094,1527.0,106.0,523.0
49095,1527.0,106.0,523.0
49096,1527.0,106.0,523.0
49097,1527.0,106.0,523.0
49098,1527.0,106.0,523.0
49099,1527.0,106.0,523.0
49100,1527.0,106.0,523.0
49101,1527.0,106.0,523.0
49102,1527.0,106.0,523.0
49103,1527.0,106.0,523.0
49104,1527.0,106.0,523.0
49105,590.0,106.0,523.0
49106,590.0,106.0,523.0
49107,590.0,106.0,523.0
49108,590.0,106.0,523.0
49109,590.0,106.0,523.0
49110,590.0,106.0,523.0
49111,590.0,178.0,523.0
49112,590.0,178.0,523.0
49113,856.0,178.0,523.0
49114,856.0,178.0,523.0
49115,856.0,178.0,523.0
49116,856.0,178.0,523.0
49117,856.0,178.0,523.0
49118,856.0,178.0,523.0
49119,856.0,178.0,523.0
49120,856.0,178.0,523.0
49121,856.0,178.0,523.0
49122,856.0,178.0,523.0
49123,856.0,178.0,523.0
49124,856.0,178.0,523.0
49125,856.0,178.0,523.0
49126,856.0,178.0,523.0
49127,856.0,178.0,523.0
49128,856.0,178.0,523.0
49129,856.0,178.0,523.0
49130,713.0,178.0,523.0
49131,708.0,178.0,523.0
49132,909.0,178.0,523.0
49133,514.0,178.0,523.0
49134,514.0,178.0,523.0
49135,514.0,178.0,523.0
49136,514.0,178.0,523.0
49137,514.0,178.0,523.0
49138,514.0,178.0,523.0
49139,514.0,178.0,523.0
49140,514.0,178.0,523.0
49141,514.0,178.0,523.0
49142,514.0,178.0,523.0
49143,514.0,178.0,523.0
49144,514.0,178.0,523.0
50539,1005.0,1051.0,451.0
50540,1005.0,1051.0,451.0
50541,982.0,1051.0,310.0
50542,982.0,1051.0,310.0
50543,941.0,1051.0,310.0
50544,941.0,1051.0,310.0
50545,941.0,1051.0,310.0
50546,941.0,1051.0,310.0
50547,941.0,1051.0,310.0
50548,941.0,1051.0,310.0
50549,941.0,1051.0,310.0
50550,941.0,1051.0,310.0
50551,941.0,1051.0,310.0
50552,941.0,1051.0,310.0
50553,941.0,1051.0,310.0
50554,941.0,1051.0,310.0
50555,941.0,1051.0,310.0
50556,460.0,1051.0,310.0
50557,460.0,1051.0,310.0
50558,948.0,1051.0,310.0
50559,948.0,1051.0,310.0
50560,719.0,1051.0,310.0
50561,434.0,1051.0,310.0
50562,434.0,1051.0,310.0
50563,434.0,1051.0,310.0
50564,434.0,1051.0,310.0
50565,973.0,1051.0,310.0
50566,973.0,1051.0,310.0
50567,973.0,1051.0,310.0
50568,730.0,1051.0,310.0
50569,730.0,1051.0,310.0
50570,730.0,1051.0,310.0
50571,730.0,1051.0,310.0
50572,730.0,1051.0,310.0
50573,730.0,1051.0,310.0
50574,730.0,770.0,310.0
50575,730.0,770.0,310.0
50576,730.0,770.0,310.0
50577,730.0,770.0,310.0
50578,730.0,770.0,310.0
50579,1584.0,770.0,310.0
50580,676.0,770.0,310.0
50581,676.0,770.0,310.0
50582,676.0,770.0,193.0
50583,676.0,770.0,193.0
50584,676.0,770.0,193.0
50585,676.0,1047.0,193.0
50586,676.0,1047.0,193.0
50587,1484.0,1047.0,193.0
50588,1484.0,1047.0,193.0
50589,1484.0,1378.0,193.0
50590,1484.0,1378.0,193.0
50591,1484.0,1090.0,193.0
50592,1484.0,1090.0,193.0
50593,1484.0,1090.0,193.0
50594,1484.0,1090.0,193.0
50595,1484.0,1090.0,193.0
50596,1484.0,1090.0,193.0
50597,1484.0,1090.0,193.0
50598,1484.0,1090.0,193.0
50599,1484.0,1090.0,193.0
50600,1484.0,1090.0,193.0
50601,1484.0,1090.0,193.0
50602,1484.0,850.0,193.0
50603,1484.0,882.0,193.0
50604,1484.0,882.0,193.0
50605,1484.0,1046.0,193.0
50606,1484.0,1046.0,193.0
50607,1484.0,1046.0,193.0
50608,1484.0,1046.0,193.0
50609,1484.0,1046.0,193.0
50610,1484.0,1046.0,193.0
50611,1484.0,1046.0,193.0
50612,1484.0,1046.0,193.0
50613,1484.0,1046.0,193.0
50614,1484.0,1046.0,193.0
50615,1484.0,542.0,193.0
50616,343.0,542.0,347.0
50617,343.0,542.0,347.0
50618,343.0,542.0,347.0
50619,343.0,542.0,347.0
50620,343.0,542.0,198.0
50621,398.0,542.0,198.0
50622,1244.0,444.0,363.0
50623,1244.0,1032.0,363.0
50624,1040.0,1032.0,363.0
50625,1040.0,1032.0,363.0
50626,920.0,1032.0,363.0
50627,913.0,1032.0,363.0
50628,851.0,1032.0,363.0
50629,851.0,1032.0,363.0
50630,985.0,1032.0,634.0
50631,709.0,1032.0,634.0
50632,709.0,1032.0,634.0
50633,709.0,1032.0,634.0
50634,709.0,1032.0,634.0
50635,709.0,1032.0,634.0
50636,709.0,1032.0,634.0
50637,709.0,1032.0,634.0
50638,709.0,1032.0,634.0
50639,709.0,1032.0,765.0
50640,709.0,1032.0,765.0
50641,709.0,1032.0,765.0
50642,1484.0,1032.0,765.0
50643,1484.0,1032.0,765.0
50644,864.0,1032.0,765.0
50645,864.0,1032.0,765.0
50646,864.0,1200.0,765.0
50647,864.0,1200.0,765.0
50648,843.0,1200.0,765.0
50649,1121.0,1200.0,765.0
50650,1121.0,1200.0,765.0
50651,1121.0,1200.0,765.0
50652,1121.0,1200.0,765.0
50653,1121.0,1200.0,317.0
50654,1121.0,1200.0,317.0
50655,1121.0,1200.0,317.0
50656,1121.0,1200.0,317.0
50657,1121.0,1200.0,441.0
50658,1121.0,1200.0,441.0
50659,1121.0,1200.0,490.0
50660,1121.0,1200.0,490.0
50661,1121.0,1200.0,490.0
50662,1121.0,532.0,490.0
50663,1121.0,571.0,490.0
50664,1121.0,571.0,490.0
50665,1121.0,571.0,490.0
50666,1121.0,854.0,490.0
50667,326.0,854.0,490.0
50668,823.0,854.0,490.0
50669,823.0,854.0,490.0
50670,823.0,1092.0,490.0
50671,823.0,1722.0,490.0
50672,823.0,1199.0,347.0
50673,823.0,1199.0,347.0
50674,823.0,1199.0,347.0
50675,823.0,1132.0,347.0
50676,930.0,1132.0,604.0
50677,930.0,1132.0,604.0
50678,930.0,1132.0,321.0
50679,526.0,1132.0,321.0
50680,985.0,1132.0,321.0
50681,985.0,1132.0,321.0
50682,985.0,1132.0,406.0
50683,985.0,1132.0,406.0
50684,985.0,1132.0,410.0
50685,985.0,1184.0,410.0
50686,985.0,1184.0,260.0
50687,985.0,1336.0,260.0
50688,985.0,1336.0,260.0
50689,985.0,1336.0,260.0
50690,985.0,1336.0,260.0
50691,985.0,1336.0,260.0
50692,1136.0,1336.0,260.0
50693,1136.0,1336.0,448.0
50694,1323.0,129.0,710.0
50695,1136.0,1336.0,448.0
50696,1184.0,1336.0,448.0
50697,1184.0,1336.0,448.0
50698,1184.0,1336.0,448.0
50699,1184.0,1336.0,448.0
50700,729.0,1252.0,448.0
50701,729.0,1252.0,448.0
50702,729.0,1320.0,448.0
50703,729.0,1320.0,448.0
50704,729.0,1320.0,448.0
50705,729.0,1320.0,506.0
50706,729.0,1320.0,506.0
50707,1323.0,129.0,522.0
50708,729.0,1320.0,506.0
50709,729.0,1320.0,506.0
50710,729.0,964.0,506.0
50711,729.0,964.0,506.0
50712,729.0,964.0,506.0
50713,729.0,964.0,245.0
50714,729.0,964.0,245.0
50715,729.0,964.0,245.0
50716,729.0,964.0,245.0
50717,729.0,964.0,245.0
50718,729.0,964.0,245.0
50719,782.0,964.0,245.0
50720,782.0,964.0,245.0
50721,1323.0,129.0,522.0
50722,782.0,964.0,310.0
50723,782.0,964.0,310.0
50724,318.0,964.0,310.0
50725,1626.0,381.0,310.0
50726,1626.0,1221.0,310.0
50727,1626.0,1221.0,310.0
50728,1626.0,1221.0,310.0
50729,1626.0,930.0,443.0
50730,768.0,930.0,443.0
50731,768.0,930.0,443.0
50732,768.0,930.0,443.0
50733,768.0,930.0,443.0
50734,1029.0,930.0,443.0
50735,1029.0,930.0,443.0
50736,1029.0,930.0,358.0
50737,1029.0,736.0,358.0
50738,1029.0,1020.0,358.0
50739,1029.0,1020.0,358.0
50740,1029.0,1020.0,358.0
50741,1923.0,708.0,522.0
50742,1029.0,1020.0,358.0
50743,1015.0,1020.0,358.0
50744,1015.0,1020.0,358.0
50745,1156.0,1020.0,358.0
50746,1156.0,1020.0,358.0
50747,620.0,1020.0,426.0
50748,1044.0,1020.0,426.0
50749,1044.0,1020.0,262.0
50750,1044.0,358.0,262.0
50751,1044.0,358.0,262.0
50752,1044.0,358.0,262.0
50753,1044.0,767.0,262.0
50754,1044.0,767.0,262.0
50755,1044.0,491.0,262.0
50756,1044.0,491.0,262.0
50757,1044.0,491.0,262.0
50758,700.0,491.0,262.0
50759,1180.0,491.0,262.0
50760,1180.0,491.0,262.0
50761,1012.0,491.0,262.0
50762,1012.0,491.0,262.0
50763,1012.0,491.0,262.0
50764,1012.0,491.0,262.0
50765,1012.0,491.0,262.0
50766,1012.0,491.0,262.0
50767,1012.0,491.0,262.0
50768,1012.0,491.0,262.0
50769,424.0,491.0,262.0
50770,809.0,491.0,262.0
50771,809.0,491.0,262.0
50772,809.0,491.0,262.0
50773,809.0,491.0,262.0
50774,809.0,491.0,262.0
50775,809.0,491.0,262.0
50776,809.0,491.0,262.0
50777,809.0,491.0,262.0
50778,809.0,491.0,262.0
50779,1021.0,491.0,262.0
50780,1021.0,491.0,262.0
50781,1021.0,491.0,262.0
50782,1049.0,491.0,262.0
50783,1049.0,491.0,262.0
50784,487.0,491.0,262.0
50785,487.0,491.0,262.0
50786,487.0,491.0,262.0
50787,487.0,491.0,262.0
50788,487.0,491.0,262.0
50789,487.0,491.0,262.0
50790,487.0,491.0,262.0
50791,1280.0,491.0,262.0
50792,1280.0,491.0,262.0
50793,390.0,491.0,262.0
50794,881.0,491.0,262.0
50795,881.0,491.0,262.0
50796,927.0,491.0,262.0
50797,927.0,491.0,262.0
50798,643.0,491.0,262.0
50799,643.0,491.0,262.0
50800,643.0,491.0,262.0
50801,902.0,491.0,262.0
50802,902.0,491.0,262.0
50803,403.0,491.0,262.0
50804,1923.0,708.0,1326.0
50805,825.0,491.0,262.0
50806,825.0,491.0,262.0
50807,825.0,491.0,262.0
50808,825.0,491.0,262.0
50809,825.0,491.0,262.0
50810,645.0,491.0,262.0
50811,645.0,491.0,262.0
50812,645.0,491.0,262.0
50813,645.0,491.0,262.0
50814,645.0,491.0,262.0
50815,558.0,491.0,262.0
50816,558.0,491.0,262.0
50817,558.0,491.0,262.0
50818,558.0,491.0,262.0
50819,558.0,491.0,262.0
50820,558.0,491.0,262.0
50821,558.0,491.0,262.0
50822,558.0,491.0,262.0
50823,558.0,491.0,262.0
50824,558.0,491.0,262.0
50825,558.0,491.0,262.0
50826,558.0,491.0,262.0
50827,558.0,491.0,262.0
50828,558.0,491.0,262.0
50829,558.0,491.0,262.0
50830,558.0,491.0,262.0
50831,558.0,491.0,262.0
50832,558.0,491.0,262.0
50833,558.0,491.0,262.0
50834,558.0,491.0,262.0
50835,558.0,491.0,262.0
50836,558.0,491.0,262.0
50837,558.0,491.0,262.0
50838,558.0,491.0,262.0
50839,558.0,491.0,262.0
50840,59.0,491.0,262.0
50841,59.0,491.0,262.0
50842,59.0,491.0,262.0
50843,59.0,491.0,262.0
50844,59.0,491.0,262.0
50845,59.0,491.0,262.0
50846,1370.0,491.0,262.0
50847,1370.0,491.0,262.0
50848,803.0,491.0,262.0
50849,1923.0,708.0,1326.0
50850,803.0,491.0,262.0
50851,803.0,491.0,262.0
50852,803.0,491.0,262.0
50853,803.0,491.0,262.0
50854,16.0,491.0,262.0
50855,16.0,491.0,262.0
50856,17.0,491.0,262.0
50857,17.0,491.0,262.0
50858,7.0,491.0,262.0
50859,7.0,491.0,262.0
50860,7.0,491.0,262.0
50861,7.0,491.0,262.0
50862,7.0,491.0,262.0
50863,7.0,491.0,262.0
50864,7.0,491.0,262.0
50865,7.0,491.0,262.0
50866,7.0,491.0,262.0
50867,7.0,491.0,262.0
50868,7.0,491.0,262.0
50869,7.0,491.0,262.0
50870,7.0,491.0,262.0
50871,7.0,491.0,262.0
50872,7.0,491.0,262.0
50873,7.0,491.0,262.0
50874,7.0,491.0,262.0
50875,7.0,491.0,262.0
50876,7.0,491.0,262.0
50877,7.0,491.0,262.0
50878,1045.0,491.0,262.0
50879,1045.0,491.0,262.0
50880,1045.0,491.0,262.0
50881,1045.0,491.0,262.0
50882,1045.0,491.0,262.0
50883,1045.0,491.0,262.0
50884,1045.0,491.0,262.0
50885,1045.0,491.0,262.0
50886,1045.0,491.0,262.0
50887,1045.0,491.0,262.0
50888,1045.0,491.0,262.0
50889,1045.0,491.0,262.0
50890,1045.0,491.0,262.0
50891,1045.0,491.0,262.0
50892,1045.0,491.0,262.0
50893,1045.0,491.0,262.0
50894,1045.0,491.0,262.0
50895,1923.0,708.0,1326.0
50896,1045.0,491.0,262.0
50897,1045.0,491.0,262.0
50898,1045.0,491.0,262.0
50899,1045.0,491.0,262.0
50900,1045.0,491.0,21.0
50901,1045.0,491.0,21.0
50902,1045.0,491.0,21.0
50903,1045.0,491.0,21.0
50904,1045.0,491.0,21.0
50905,1045.0,491.0,21.0
50906,1045.0,491.0,21.0
50907,1045.0,491.0,21.0
50908,1045.0,491.0,21.0
50909,1045.0,491.0,21.0
50910,1045.0,491.0,21.0
50911,1045.0,491.0,21.0
50912,1045.0,42.0,21.0
50913,1045.0,42.0,21.0
50914,1045.0,42.0,21.0
50915,1045.0,42.0,21.0
50916,1045.0,42.0,21.0
50917,1045.0,42.0,21.0
50918,1045.0,42.0,21.0
50919,1045.0,42.0,21.0
50920,1045.0,856.0,21.0
50921,1045.0,856.0,21.0
50922,1045.0,856.0,21.0
50923,1045.0,856.0,21.0
50924,1045.0,856.0,21.0
50925,1045.0,856.0,21.0
50926,1045.0,856.0,21.0
50927,1045.0,856.0,21.0
50928,1045.0,856.0,21.0
50929,1045.0,856.0,21.0
50930,1045.0,856.0,21.0
50931,1045.0,856.0,21.0
50932,1045.0,856.0,21.0
50933,1045.0,856.0,21.0
50934,1045.0,856.0,21.0
50935,1045.0,856.0,21.0
50936,1045.0,856.0,21.0
50937,1045.0,856.0,21.0
50938,1045.0,856.0,21.0
50939,1045.0,856.0,21.0
50940,1045.0,856.0,21.0
50941,1045.0,856.0,21.0
50942,1045.0,856.0,21.0
50943,1045.0,856.0,1056.0
50944,1045.0,856.0,1056.0
50945,1045.0,856.0,1056.0
50946,1045.0,856.0,1056.0
50947,1045.0,856.0,1056.0
50948,1045.0,856.0,1056.0
50949,1045.0,856.0,16.0
50950,1045.0,856.0,16.0
50951,1045.0,856.0,18.0
50952,1045.0,856.0,18.0
50953,1045.0,856.0,18.0
50954,1923.0,708.0,1326.0
50955,1045.0,856.0,18.0
50956,1045.0,856.0,18.0
50957,1045.0,856.0,18.0
50958,1045.0,856.0,18.0
50959,1045.0,856.0,18.0
50960,1045.0,856.0,18.0
50961,1045.0,856.0,4045.0
50962,1045.0,856.0,4045.0
50963,1045.0,856.0,4045.0
50964,1045.0,856.0,4045.0
50965,1045.0,856.0,4045.0
50966,1045.0,856.0,4045.0
50967,1045.0,856.0,4045.0
50968,1045.0,856.0,4045.0
50969,1045.0,856.0,4045.0
50970,1045.0,856.0,4045.0
50971,1045.0,856.0,4045.0
50972,1045.0,856.0,4045.0
50973,1045.0,856.0,4045.0
50974,1045.0,856.0,4045.0
50975,1045.0,856.0,4045.0
50976,1045.0,601.0,4045.0
50977,1045.0,601.0,4045.0
50978,1045.0,601.0,23.0
50979,1045.0,601.0,23.0
50980,1045.0,601.0,23.0
50981,1045.0,601.0,23.0
50982,1045.0,601.0,10.0
50983,1045.0,601.0,10.0
50984,1045.0,601.0,2919.0
50985,1045.0,601.0,2919.0
50986,1045.0,601.0,2919.0
50987,1045.0,601.0,2919.0
50988,1045.0,601.0,2025.0
50989,1923.0,708.0,1326.0
50990,1045.0,601.0,2025.0
50991,1045.0,601.0,2025.0
50992,1045.0,601.0,2025.0
50993,1045.0,601.0,2025.0
50994,1045.0,601.0,2025.0
50995,1045.0,601.0,2025.0
50996,1045.0,601.0,2025.0
50997,1045.0,601.0,2025.0
50998,1045.0,601.0,2025.0
50999,1045.0,601.0,2025.0
51000,1045.0,601.0,2025.0
51001,1045.0,601.0,2025.0
51002,1045.0,601.0,2025.0
51003,1045.0,601.0,2025.0
51004,1045.0,601.0,2025.0
51005,1045.0,601.0,2025.0
51006,1045.0,601.0,2041.0
51007,1045.0,601.0,2041.0
51008,1045.0,601.0,836.0
51009,1045.0,601.0,836.0
51010,1045.0,601.0,372.0
51011,1045.0,601.0,372.0
51012,1045.0,601.0,15.0
51013,1045.0,601.0,15.0
51014,1045.0,601.0,15.0
51015,1045.0,601.0,15.0
51016,1045.0,601.0,15.0
51017,1045.0,601.0,15.0
51018,1045.0,601.0,15.0
51019,1045.0,601.0,15.0
51020,1045.0,601.0,1683.0
51021,1045.0,601.0,1683.0
51022,1045.0,601.0,1683.0
51023,1045.0,601.0,1683.0
51024,1045.0,601.0,1683.0
51025,1045.0,831.0,1683.0
51026,1045.0,831.0,1683.0
51027,1923.0,708.0,1326.0
51028,1045.0,378.0,1683.0
51029,1045.0,378.0,1683.0
51030,1045.0,378.0,1683.0
51031,1045.0,52.0,1683.0
51032,1045.0,22.0,1683.0
51033,1045.0,22.0,1683.0
51034,1045.0,22.0,1683.0
51035,1045.0,22.0,1683.0
51036,1045.0,5.0,1683.0
51037,1045.0,5.0,1683.0
51038,1045.0,5.0,1683.0
51039,1923.0,708.0,1326.0
51040,1923.0,708.0,1326.0
51041,1923.0,708.0,1263.0
51042,1923.0,708.0,1263.0
51043,1923.0,708.0,1263.0
51044,1923.0,708.0,1285.0
51045,1923.0,708.0,1019.0
51046,1923.0,708.0,1002.0
51047,1923.0,708.0,1002.0
51048,1923.0,708.0,518.0
51049,1923.0,708.0,518.0
51050,1077.0,284.0,20.0
51051,1077.0,284.0,8.0
51052,888.0,284.0,8.0
51053,888.0,284.0,8.0
51054,1056.0,284.0,8.0
51055,1056.0,284.0,8.0
51056,1056.0,284.0,8.0
51057,1056.0,284.0,8.0
51058,1056.0,284.0,9.0
51059,1056.0,284.0,18.0
51060,1056.0,284.0,18.0
51061,1056.0,284.0,18.0
51062,1056.0,284.0,39.0
51063,1056.0,284.0,39.0
51064,1056.0,284.0,20.0
51065,1056.0,284.0,20.0
51066,1195.0,284.0,20.0
51067,1195.0,284.0,20.0
51068,1195.0,284.0,16.0
51069,1195.0,284.0,25.0
51070,1195.0,284.0,25.0
51071,1195.0,284.0,25.0
51072,1031.0,284.0,25.0
51073,1632.0,284.0,25.0
51074,1632.0,284.0,25.0
51075,1695.0,284.0,25.0
51076,1695.0,284.0,25.0
51077,1695.0,284.0,25.0
51078,1695.0,284.0,25.0
51079,1695.0,284.0,25.0
51080,1695.0,278.0,25.0
51081,1695.0,278.0,25.0
51082,1695.0,278.0,25.0
51083,1695.0,278.0,14.0
51084,1695.0,278.0,14.0
51085,2196.0,278.0,14.0
51086,2196.0,278.0,14.0
51087,2196.0,278.0,14.0
51088,2196.0,278.0,14.0
51089,2196.0,278.0,14.0
51090,733.0,278.0,14.0
51091,733.0,278.0,14.0
51092,733.0,278.0,14.0
51093,733.0,278.0,14.0
51094,733.0,278.0,14.0
51095,733.0,278.0,14.0
51096,733.0,278.0,14.0
51097,1923.0,708.0,518.0
51098,733.0,278.0,14.0
51099,733.0,278.0,3012.0
51100,733.0,278.0,3012.0
51101,733.0,278.0,54.0
51102,733.0,278.0,54.0
51103,733.0,278.0,54.0
51104,733.0,278.0,54.0
51105,733.0,278.0,54.0
51106,733.0,278.0,54.0
51107,733.0,278.0,54.0
51108,733.0,278.0,54.0
51109,733.0,278.0,54.0
51110,733.0,278.0,54.0
51111,733.0,278.0,54.0
51112,1087.0,278.0,54.0
51113,1087.0,278.0,54.0
51114,1087.0,278.0,54.0
51115,1087.0,278.0,54.0
51116,1087.0,278.0,54.0
51117,1087.0,278.0,54.0
51118,1087.0,278.0,1696.0
51119,1087.0,278.0,1696.0
51120,1087.0,278.0,659.0
51121,1087.0,278.0,659.0
51122,1087.0,278.0,919.0
51123,1087.0,278.0,919.0
51124,1087.0,278.0,919.0
51125,1087.0,278.0,1767.0
51126,1087.0,278.0,1767.0
51127,1087.0,278.0,1767.0
51128,1087.0,278.0,1802.0
51129,1087.0,278.0,1789.0
51130,1087.0,278.0,1408.0
51131,1087.0,278.0,1186.0
51132,1087.0,278.0,1186.0
51133,1087.0,605.0,1795.0
51134,1087.0,605.0,1795.0
51135,1585.0,605.0,1795.0
51136,1585.0,554.0,870.0
51137,1585.0,554.0,870.0
51138,1585.0,554.0,1180.0
51139,1585.0,554.0,1180.0
51140,1585.0,554.0,1180.0
51141,1585.0,554.0,1180.0
51142,1585.0,426.0,1180.0
51143,1585.0,426.0,1180.0
51144,1634.0,751.0,1180.0
51145,1634.0,751.0,2273.0
51146,1634.0,751.0,1676.0
51147,1634.0,751.0,1042.0
51148,1634.0,751.0,2099.0
51149,1634.0,751.0,2181.0
51150,1634.0,751.0,2181.0
51151,1634.0,751.0,2181.0
51152,1634.0,751.0,2181.0
51153,1634.0,751.0,2036.0
51154,1634.0,751.0,2036.0
51155,1634.0,751.0,1259.0
51156,1634.0,514.0,1259.0
51157,1634.0,514.0,1259.0
51158,1923.0,708.0,518.0
51159,1634.0,514.0,1259.0
51160,1634.0,514.0,1259.0
51161,1634.0,514.0,757.0
51162,1634.0,514.0,1642.0
51163,1634.0,514.0,1642.0
51164,1634.0,514.0,665.0
51165,1634.0,514.0,995.0
51166,1634.0,514.0,740.0
51167,1634.0,514.0,992.0
51168,1634.0,514.0,992.0
51169,1634.0,514.0,992.0
51170,1634.0,514.0,992.0
51171,1634.0,514.0,992.0
51172,1634.0,711.0,992.0
51173,1634.0,711.0,992.0
51174,1634.0,711.0,992.0
51175,1634.0,711.0,802.0
51176,1634.0,711.0,802.0
51177,1634.0,242.0,802.0
51178,1634.0,242.0,802.0
51179,1634.0,242.0,739.0
51180,1634.0,242.0,739.0
51181,1634.0,330.0,739.0
51182,1634.0,330.0,739.0
51183,1634.0,596.0,739.0
51184,1634.0,596.0,739.0
51185,1634.0,596.0,844.0
51186,1634.0,596.0,844.0
51187,1634.0,527.0,844.0
51188,1634.0,343.0,844.0
51189,1634.0,343.0,844.0
51190,1634.0,343.0,844.0
51191,1634.0,343.0,931.0
51192,1634.0,543.0,931.0
51193,1634.0,543.0,931.0
51194,1634.0,543.0,931.0
51195,1634.0,543.0,931.0
51196,1634.0,543.0,892.0
51197,1634.0,543.0,1259.0
51198,1634.0,543.0,1259.0
51199,1634.0,543.0,1259.0
51200,1634.0,565.0,1259.0
51201,1634.0,565.0,1259.0
51202,1634.0,565.0,812.0
51203,1634.0,565.0,812.0
51204,1634.0,565.0,812.0
51205,1634.0,565.0,812.0
51206,1634.0,565.0,812.0
51207,1634.0,565.0,812.0
51208,1634.0,565.0,1653.0
51209,1634.0,565.0,1653.0
51210,1634.0,565.0,1653.0
51211,1923.0,708.0,518.0
51212,1634.0,565.0,1653.0
51213,1634.0,565.0,1653.0
51214,1634.0,565.0,1420.0
51215,1634.0,565.0,1420.0
51216,1634.0,565.0,1420.0
51217,1634.0,565.0,1420.0
51218,1634.0,565.0,882.0
51219,1634.0,565.0,882.0
51220,1634.0,565.0,882.0
51221,1634.0,565.0,882.0
51222,1634.0,874.0,882.0
51223,1634.0,874.0,882.0
51224,1634.0,874.0,882.0
51225,1634.0,874.0,882.0
51226,1634.0,874.0,882.0
51227,1634.0,603.0,882.0
51228,1634.0,603.0,882.0
51229,1634.0,603.0,1675.0
51230,1634.0,603.0,1675.0
51231,1634.0,603.0,2067.0
51232,1634.0,603.0,2067.0
51233,1634.0,603.0,2067.0
51234,1634.0,603.0,2067.0
51235,1634.0,373.0,2067.0
51236,1634.0,373.0,1024.0
51237,1634.0,373.0,1024.0
51238,1634.0,373.0,699.0
51239,1634.0,373.0,699.0
51240,1634.0,373.0,933.0
51241,1634.0,373.0,933.0
51242,1634.0,373.0,933.0
51243,972.0,373.0,933.0
51244,972.0,373.0,1117.0
51245,972.0,373.0,684.0
51246,972.0,373.0,684.0
51247,972.0,373.0,684.0
51248,844.0,373.0,684.0
51249,844.0,797.0,684.0
51250,844.0,797.0,684.0
51251,844.0,797.0,810.0
51252,844.0,797.0,773.0
51253,844.0,797.0,963.0
51254,1301.0,797.0,963.0
51255,1301.0,797.0,963.0
51256,1301.0,797.0,484.0
51257,1301.0,797.0,1267.0
51258,1301.0,797.0,1684.0
51259,1301.0,797.0,1684.0
51260,1301.0,797.0,1031.0
51261,1301.0,797.0,1031.0
51262,1923.0,708.0,967.0
51263,1301.0,797.0,1473.0
51264,1301.0,797.0,1473.0
51265,1301.0,486.0,1473.0
51266,1301.0,486.0,1473.0
51267,1301.0,289.0,1473.0
51268,1301.0,289.0,1473.0
51269,1301.0,289.0,1473.0
51270,1301.0,289.0,1473.0
51271,1301.0,289.0,1473.0
51272,1301.0,289.0,1473.0
51273,1301.0,289.0,1473.0
51274,1301.0,289.0,1473.0
51275,1301.0,289.0,1473.0
51276,1301.0,289.0,1473.0
51277,1301.0,289.0,1473.0
51278,1301.0,286.0,1473.0
51279,1301.0,286.0,1901.0
51280,1301.0,286.0,1901.0
51281,1301.0,286.0,1626.0
51282,1301.0,286.0,1626.0
51283,1301.0,286.0,1626.0
51284,1301.0,286.0,1626.0
51285,1301.0,286.0,1626.0
51286,1301.0,286.0,1626.0
51287,1301.0,286.0,1626.0
51288,1301.0,286.0,808.0
51289,1301.0,286.0,808.0
51290,1301.0,286.0,808.0
51291,1301.0,286.0,1307.0
51292,1301.0,286.0,1307.0
51293,1301.0,286.0,1307.0
51294,1301.0,286.0,1307.0
51295,1301.0,286.0,764.0
51296,1301.0,286.0,764.0
51297,1301.0,286.0,759.0
51298,1301.0,286.0,759.0
51299,1301.0,286.0,759.0
51300,1301.0,286.0,808.0
51301,1301.0,286.0,1203.0
51302,1301.0,286.0,1203.0
51303,1301.0,286.0,825.0
51304,1301.0,286.0,1473.0
51305,1301.0,286.0,1473.0
51306,1301.0,286.0,1474.0
51307,1301.0,286.0,1474.0
51308,1301.0,286.0,1474.0
51309,1301.0,286.0,1000.0
51310,1301.0,286.0,1000.0
51311,1301.0,286.0,1000.0
51312,1301.0,286.0,1000.0
51313,1301.0,286.0,1000.0
51314,1301.0,286.0,1243.0
51315,1301.0,286.0,1134.0
51316,1301.0,285.0,1134.0
51317,1301.0,285.0,1134.0
51318,1301.0,285.0,1532.0
51319,1301.0,285.0,1532.0
51320,1301.0,285.0,1532.0
51321,1301.0,285.0,612.0
51322,1764.0,285.0,612.0
51323,1923.0,708.0,967.0
51324,1764.0,285.0,971.0
51325,1764.0,285.0,1001.0
51326,1764.0,285.0,1001.0
51327,1764.0,285.0,1292.0
51328,1764.0,285.0,784.0
51329,772.0,285.0,784.0
51330,772.0,285.0,784.0
51331,772.0,285.0,1015.0
51332,772.0,285.0,1015.0
51333,772.0,285.0,1015.0
51334,772.0,285.0,481.0
51335,772.0,285.0,481.0
51336,772.0,285.0,481.0
51337,772.0,285.0,481.0
51338,772.0,285.0,906.0
51339,772.0,365.0,906.0
51340,772.0,365.0,906.0
51341,1648.0,365.0,906.0
51342,1648.0,365.0,906.0
51343,1648.0,365.0,906.0
51344,1648.0,365.0,906.0
51345,1204.0,365.0,906.0
51346,1748.0,365.0,906.0
51347,1748.0,365.0,1347.0
51348,1748.0,365.0,1347.0
51349,1748.0,365.0,1347.0
51350,1748.0,365.0,1347.0
51351,1748.0,365.0,945.0
51352,644.0,365.0,945.0
51353,644.0,365.0,945.0
51354,644.0,365.0,986.0
51355,644.0,365.0,986.0
51356,644.0,365.0,986.0
51357,644.0,365.0,986.0
51358,644.0,365.0,986.0
51359,644.0,365.0,986.0
51360,644.0,365.0,976.0
51361,644.0,365.0,976.0
51362,1923.0,508.0,967.0
51363,644.0,365.0,863.0
51364,644.0,365.0,863.0
51365,644.0,365.0,863.0
51366,644.0,365.0,1878.0
51367,644.0,365.0,1878.0
51368,644.0,779.0,552.0
51369,644.0,779.0,552.0
51370,644.0,779.0,552.0
51371,644.0,779.0,1165.0
51372,644.0,733.0,1165.0
51373,644.0,733.0,1638.0
51374,644.0,733.0,1638.0
51375,644.0,733.0,553.0
51376,644.0,733.0,1144.0
51377,644.0,733.0,1386.0
51378,644.0,733.0,1386.0
51379,644.0,733.0,1386.0
51380,644.0,733.0,1386.0
51381,644.0,733.0,1386.0
51382,644.0,733.0,1386.0
51383,644.0,450.0,819.0
51384,644.0,450.0,819.0
51385,644.0,450.0,819.0
51386,644.0,450.0,819.0
51387,644.0,450.0,819.0
51388,644.0,450.0,819.0
51389,644.0,315.0,1146.0
51390,644.0,315.0,1146.0
51391,644.0,315.0,1146.0
51392,644.0,315.0,1146.0
51393,644.0,315.0,1146.0
51394,644.0,315.0,1033.0
51395,644.0,315.0,566.0
51396,644.0,561.0,566.0
51397,644.0,561.0,1355.0
51398,644.0,561.0,1355.0
51399,644.0,561.0,1355.0
51400,644.0,561.0,1179.0
51401,644.0,561.0,628.0
51402,644.0,561.0,559.0
51403,644.0,561.0,559.0
51404,644.0,561.0,559.0
51405,1521.0,561.0,559.0
51406,1521.0,561.0,559.0
51407,1521.0,561.0,559.0
51408,1521.0,561.0,559.0
51409,1521.0,561.0,1301.0
51410,1521.0,561.0,1301.0
51411,1521.0,561.0,1559.0
51412,1521.0,308.0,1559.0
51413,1521.0,308.0,1559.0
51414,1521.0,554.0,1559.0
51415,1923.0,508.0,967.0
51416,1521.0,554.0,1559.0
51417,1521.0,554.0,1559.0
51418,1521.0,554.0,1559.0
51419,1521.0,593.0,1559.0
51420,1521.0,593.0,1559.0
51421,1521.0,593.0,1559.0
51422,1206.0,593.0,1559.0
51423,1206.0,593.0,1559.0
51424,1206.0,593.0,1038.0
51425,1206.0,593.0,1038.0
51426,1206.0,593.0,1038.0
51427,1206.0,593.0,1038.0
51428,1206.0,593.0,1038.0
51429,1206.0,593.0,1809.0
51430,1206.0,593.0,1809.0
51431,1206.0,593.0,1365.0
51432,1206.0,593.0,1155.0
51433,1206.0,758.0,1155.0
51434,1206.0,758.0,1155.0
51435,1206.0,758.0,1155.0
51436,1206.0,758.0,1155.0
51437,1206.0,758.0,888.0
51438,1206.0,758.0,888.0
51439,1206.0,647.0,888.0
51440,1206.0,647.0,888.0
51441,1206.0,647.0,888.0
51442,1206.0,647.0,888.0
51443,1206.0,355.0,1654.0
51444,1206.0,355.0,1654.0
51445,863.0,502.0,1654.0
51446,863.0,502.0,1282.0
51447,863.0,387.0,1282.0
51448,863.0,387.0,1282.0
51449,863.0,387.0,1282.0
51450,863.0,387.0,1282.0
51451,863.0,325.0,1282.0
51452,863.0,325.0,1282.0
51453,863.0,264.0,1282.0
51454,863.0,264.0,887.0
51455,863.0,264.0,1420.0
51456,1923.0,508.0,1222.0
51457,863.0,264.0,985.0
51458,863.0,264.0,985.0
51459,863.0,264.0,955.0
51460,863.0,264.0,754.0
51461,863.0,264.0,754.0
51462,863.0,264.0,754.0
51463,863.0,264.0,754.0
51464,863.0,264.0,668.0
51465,863.0,264.0,1151.0
51466,863.0,264.0,1151.0
51467,863.0,264.0,595.0
51468,863.0,264.0,595.0
51469,863.0,264.0,595.0
51470,863.0,264.0,595.0
51471,863.0,708.0,595.0
51472,863.0,708.0,595.0
51473,863.0,708.0,595.0
51474,863.0,708.0,595.0
51475,863.0,708.0,595.0
51476,863.0,708.0,595.0
51477,863.0,708.0,689.0
51478,863.0,708.0,1624.0
51479,863.0,708.0,1091.0
51480,863.0,708.0,746.0
51481,863.0,708.0,746.0
51482,863.0,708.0,746.0
51483,863.0,708.0,746.0
51484,863.0,708.0,1181.0
51485,863.0,708.0,1181.0
51486,863.0,708.0,1181.0
51487,863.0,708.0,2549.0
51488,863.0,427.0,2549.0
51489,863.0,427.0,1602.0
51490,863.0,427.0,1602.0
51491,863.0,427.0,1602.0
51492,863.0,427.0,1602.0
51493,863.0,427.0,942.0
51494,863.0,427.0,942.0
51495,615.0,427.0,942.0
51496,615.0,427.0,942.0
51497,615.0,427.0,942.0
51498,615.0,427.0,942.0
51499,615.0,427.0,942.0
51500,615.0,427.0,942.0
51501,615.0,427.0,942.0
51502,615.0,427.0,942.0
51503,615.0,427.0,594.0
51504,615.0,427.0,594.0
51505,615.0,427.0,594.0
51506,615.0,427.0,1134.0
51507,615.0,427.0,1253.0
51508,615.0,427.0,1253.0
51509,615.0,427.0,1253.0
51510,615.0,427.0,545.0
51511,615.0,429.0,545.0
51512,615.0,429.0,545.0
51513,615.0,429.0,545.0
51514,615.0,429.0,545.0
51515,615.0,429.0,545.0
51516,615.0,429.0,690.0
51517,1595.0,429.0,690.0
51518,1595.0,429.0,690.0
51519,1595.0,429.0,482.0
51520,1595.0,429.0,482.0
51521,1595.0,429.0,482.0
51522,1595.0,429.0,482.0
51523,1595.0,429.0,482.0
51524,1595.0,429.0,482.0
51525,1923.0,508.0,1222.0
51526,1595.0,549.0,482.0
51527,1595.0,549.0,482.0
51528,1595.0,549.0,482.0
51529,1595.0,549.0,1922.0
51530,1595.0,549.0,1922.0
51531,1595.0,549.0,1922.0
51532,1595.0,549.0,1922.0
51533,1595.0,549.0,1922.0
51534,1595.0,549.0,1922.0
51535,1595.0,549.0,1922.0
51536,1595.0,549.0,1539.0
51537,1595.0,549.0,1539.0
51538,2433.0,549.0,1539.0
51539,1405.0,549.0,1539.0
51540,1405.0,549.0,1539.0
51541,1405.0,549.0,997.0
51542,1598.0,549.0,997.0
51543,1182.0,549.0,997.0
51544,1314.0,549.0,997.0
51545,1318.0,549.0,997.0
51546,1318.0,549.0,997.0
51547,1318.0,549.0,997.0
51548,1318.0,549.0,940.0
51549,1318.0,549.0,940.0
51550,1318.0,549.0,940.0
51551,1318.0,549.0,1217.0
51552,1318.0,549.0,993.0
51553,1318.0,549.0,993.0
51554,1318.0,549.0,993.0
51555,1318.0,549.0,993.0
51556,1318.0,549.0,1211.0
51557,1318.0,549.0,1211.0
51558,1318.0,549.0,1960.0
51559,1318.0,549.0,1960.0
51560,726.0,549.0,1019.0
51561,726.0,549.0,1542.0
51562,1023.0,549.0,1542.0
51563,1023.0,549.0,998.0
51564,1023.0,549.0,874.0
51565,1023.0,549.0,874.0
51566,1249.0,549.0,874.0
51567,1249.0,549.0,1411.0
51568,1249.0,549.0,1411.0
51569,1249.0,549.0,1411.0
51570,1249.0,549.0,1411.0
51571,1249.0,549.0,1411.0
51572,1249.0,549.0,1411.0
51573,1249.0,549.0,1411.0
51574,1249.0,549.0,1411.0
51575,1249.0,549.0,1411.0
51576,1249.0,549.0,1411.0
51577,1249.0,549.0,693.0
51578,1249.0,549.0,693.0
51579,1249.0,549.0,693.0
51580,1249.0,549.0,693.0
51581,1249.0,549.0,693.0
51582,1614.0,549.0,983.0
51583,1614.0,549.0,983.0
51584,1614.0,549.0,983.0
51585,1614.0,549.0,983.0
51586,1614.0,549.0,983.0
51587,1614.0,549.0,872.0
51588,1614.0,549.0,1479.0
51589,1614.0,549.0,1316.0
51590,1614.0,549.0,1316.0
51591,1614.0,549.0,1316.0
51592,1614.0,549.0,1316.0
51593,1614.0,549.0,1546.0
51594,1923.0,382.0,1222.0
51595,1614.0,549.0,1546.0
51596,1614.0,549.0,1546.0
51597,1614.0,549.0,1390.0
51598,1614.0,549.0,1390.0
51599,1614.0,549.0,1616.0
51600,1614.0,549.0,1616.0
51601,1614.0,549.0,1616.0
51602,1614.0,549.0,1616.0
51603,1614.0,549.0,1586.0
51604,1614.0,549.0,1586.0
51605,1614.0,549.0,1586.0
51606,1614.0,549.0,1586.0
51607,1614.0,549.0,691.0
51608,1614.0,549.0,1111.0
51609,1614.0,549.0,1410.0
51610,1614.0,549.0,1410.0
51611,1614.0,549.0,1410.0
51612,988.0,549.0,1410.0
51613,988.0,549.0,1410.0
51614,988.0,549.0,1410.0
51615,988.0,549.0,1410.0
51616,2395.0,549.0,1410.0
51617,2395.0,549.0,1410.0
51618,2395.0,549.0,1410.0
51619,1589.0,549.0,1410.0
51620,1589.0,549.0,1410.0
51621,1589.0,549.0,1523.0
51622,1589.0,549.0,1523.0
51623,1589.0,549.0,1523.0
51624,1589.0,549.0,1523.0
51625,1589.0,549.0,1523.0
51626,1589.0,549.0,1523.0
51627,1589.0,549.0,1523.0
51628,1589.0,549.0,1523.0
51629,1589.0,549.0,1523.0
51630,1589.0,277.0,1523.0
51631,1589.0,553.0,1523.0
51632,1589.0,553.0,1523.0
51633,1589.0,219.0,1523.0
51634,1589.0,219.0,1523.0
51635,1004.0,219.0,1523.0
51636,1004.0,219.0,1590.0
51637,1004.0,219.0,1590.0
51638,1004.0,219.0,1590.0
51639,1004.0,219.0,1590.0
51640,1004.0,219.0,1652.0
51641,1004.0,219.0,1652.0
51642,1324.0,219.0,1652.0
51643,1324.0,219.0,1652.0
51644,1324.0,219.0,1652.0
51645,1324.0,219.0,1652.0
51646,1324.0,219.0,1652.0
51647,1324.0,219.0,1652.0
51648,1324.0,395.0,1652.0
51649,1324.0,395.0,1652.0
51650,1324.0,395.0,1156.0
51651,1324.0,395.0,1156.0
51652,1324.0,395.0,1156.0
51653,1324.0,395.0,1156.0
51654,1324.0,395.0,755.0
51655,1324.0,395.0,1712.0
51656,1232.0,395.0,913.0
51657,1232.0,395.0,913.0
51658,1232.0,395.0,913.0
51659,1232.0,299.0,913.0
51660,1923.0,382.0,1222.0
51661,1232.0,299.0,513.0
51662,1232.0,299.0,513.0
51663,2616.0,299.0,513.0
51664,2616.0,299.0,513.0
51665,1620.0,633.0,513.0
51666,1620.0,633.0,513.0
51667,1620.0,633.0,513.0
51668,1620.0,633.0,513.0
51669,1620.0,633.0,1331.0
51670,1620.0,633.0,1136.0
51671,1620.0,633.0,1136.0
51672,1620.0,633.0,1136.0
51673,1620.0,633.0,1136.0
51674,1620.0,633.0,1136.0
51675,1620.0,633.0,1136.0
51676,1620.0,633.0,1136.0
51677,1620.0,633.0,1136.0
51678,1620.0,633.0,1123.0
51679,1620.0,633.0,1123.0
51680,1620.0,633.0,1123.0
51681,1620.0,633.0,1147.0
51682,1620.0,633.0,425.0
51683,1620.0,633.0,425.0
51684,1620.0,633.0,425.0
51685,1620.0,633.0,425.0
51686,1620.0,633.0,425.0
51687,1620.0,633.0,899.0
51688,1620.0,633.0,899.0
51689,1620.0,633.0,899.0
51690,1620.0,633.0,899.0
51691,1620.0,633.0,899.0
51692,1620.0,633.0,899.0
51693,1620.0,633.0,899.0
51694,1620.0,490.0,1097.0
51695,1620.0,490.0,1097.0
51696,1620.0,490.0,1097.0
51697,1620.0,490.0,1097.0
51698,1233.0,490.0,1097.0
51699,1233.0,490.0,1097.0
51700,1233.0,490.0,1097.0
51701,1233.0,490.0,1097.0
51702,1923.0,382.0,1222.0
51703,1233.0,490.0,1097.0
51704,1233.0,490.0,1097.0
51705,1233.0,490.0,1097.0
51706,1233.0,490.0,1097.0
51707,1233.0,490.0,1097.0
51708,1233.0,490.0,1097.0
51709,1233.0,490.0,728.0
51710,1233.0,490.0,773.0
51711,1233.0,490.0,1183.0
51712,1233.0,490.0,1183.0
51713,1233.0,490.0,1376.0
51714,1233.0,490.0,1376.0
51715,1233.0,490.0,1376.0
51716,1233.0,490.0,1376.0
51717,1233.0,490.0,1376.0
51718,1233.0,825.0,1376.0
51719,1233.0,278.0,1376.0
51720,1233.0,278.0,1376.0
51721,1233.0,421.0,1376.0
51722,1233.0,421.0,1376.0
51723,1233.0,421.0,1296.0
51724,1233.0,421.0,1296.0
51725,1233.0,421.0,1296.0
51726,1233.0,421.0,1296.0
51727,1233.0,421.0,1296.0
51728,1233.0,421.0,1362.0
51729,1233.0,279.0,1362.0
51730,1233.0,279.0,1362.0
51731,1233.0,279.0,1362.0
51732,1233.0,279.0,1362.0
51733,1233.0,868.0,1362.0
51734,1233.0,868.0,1362.0
51735,1233.0,868.0,1362.0
51736,1233.0,868.0,1362.0
