timestamp,emg1,emg2,emg3
1614,6738.0,3993.0,3709.0
1615,6738.0,3993.0,3709.0
1616,6738.0,3993.0,3709.0
1617,6738.0,2774.0,3709.0
1618,6738.0,2774.0,3709.0
1619,6738.0,2774.0,3709.0
1620,6738.0,2774.0,3709.0
1621,6738.0,2774.0,3709.0
1622,6738.0,3344.0,3709.0
1623,6738.0,3344.0,3709.0
1624,6738.0,2287.0,3709.0
1625,6738.0,2287.0,3709.0
1626,6738.0,2287.0,3709.0
1627,6738.0,2287.0,3709.0
1628,6738.0,2576.0,3709.0
1629,6738.0,1686.0,5140.0
1630,2325.0,1686.0,5140.0
1631,2325.0,1686.0,5140.0
1632,2325.0,1686.0,5577.0
1633,2325.0,1686.0,5577.0
1634,2325.0,5228.0,5577.0
1635,2325.0,5228.0,5577.0
1636,2325.0,5228.0,5577.0
1637,2325.0,5228.0,3409.0
1638,2325.0,5228.0,3593.0
1639,2325.0,5228.0,3593.0
1640,2325.0,2676.0,3593.0
1641,2325.0,2676.0,3593.0
1642,2325.0,2676.0,3593.0
1643,2325.0,1494.0,3593.0
1644,2325.0,1494.0,3593.0
1645,2325.0,1402.0,3593.0
1646,2325.0,2666.0,3593.0
1647,2325.0,2666.0,3593.0
1648,2325.0,2666.0,3593.0
1649,2325.0,2666.0,3593.0
1650,2325.0,2666.0,3593.0
1651,2325.0,2666.0,3593.0
1652,2325.0,2666.0,3593.0
1653,2325.0,1501.0,3593.0
1654,2325.0,1501.0,3593.0
1655,2325.0,1501.0,3593.0
1656,2325.0,1501.0,3593.0
1657,2325.0,3976.0,3593.0
1658,2325.0,3976.0,3593.0
1659,2325.0,3976.0,3593.0
1660,2325.0,3976.0,3593.0
1661,2325.0,3976.0,3593.0
1662,2325.0,3976.0,3593.0
1663,2325.0,1624.0,3593.0
1664,2325.0,3422.0,3593.0
1665,2325.0,3422.0,3593.0
1666,2325.0,3422.0,3593.0
1667,2325.0,3422.0,3593.0
1668,2325.0,2492.0,3593.0
1669,2325.0,2492.0,3593.0
1670,2325.0,3952.0,3593.0
1671,2325.0,3952.0,3593.0
1672,2325.0,3952.0,3593.0
1673,2325.0,3952.0,3593.0
1674,2325.0,1271.0,3024.0
1675,2325.0,1271.0,3024.0
1676,2325.0,1271.0,3024.0
1677,2325.0,1931.0,3024.0
1678,2325.0,1931.0,3024.0
1679,2325.0,1931.0,3024.0
1680,2325.0,1931.0,3086.0
1681,2325.0,1931.0,3005.0
1682,2325.0,1931.0,3005.0
1683,2325.0,1576.0,3005.0
1684,2325.0,1576.0,3005.0
1685,2325.0,1576.0,3005.0
1686,2325.0,1576.0,3005.0
1687,2325.0,1576.0,3005.0
1688,2325.0,1576.0,3005.0
1689,2325.0,1576.0,3005.0
1690,2325.0,1576.0,3005.0
1691,2325.0,1576.0,3005.0
1692,2325.0,2150.0,3005.0
1693,2325.0,1496.0,3005.0
1694,2325.0,1496.0,3005.0
1695,2325.0,1496.0,3005.0
1696,2325.0,1496.0,3005.0
1697,2325.0,1496.0,3005.0
1698,5.0,1496.0,3005.0
1699,232325.0,1496.0,3005.0
1700,2325.0,2311.0,3005.0
1701,2325.0,2311.0,3005.0
1702,2325.0,2311.0,3005.0
1703,2325.0,2311.0,3005.0
1704,2325.0,2873.0,3005.0
1705,2325.0,2873.0,3005.0
1706,2325.0,2873.0,3005.0
1707,2325.0,2873.0,3005.0
1708,2325.0,2873.0,3005.0
1709,2325.0,3037.0,3005.0
1710,2325.0,3037.0,3005.0
1711,2325.0,3037.0,3005.0
1712,2325.0,3083.0,3005.0
1713,2325.0,3083.0,3005.0
1714,2325.0,3697.0,3005.0
1715,2325.0,2815.0,3005.0
1716,2325.0,4125.0,3005.0
1717,2325.0,4125.0,3005.0
1718,2325.0,4125.0,3005.0
1719,2325.0,4125.0,3005.0
1720,2325.0,4125.0,3005.0
1721,2325.0,4125.0,3005.0
1722,2325.0,4125.0,3005.0
1723,2325.0,4125.0,3286.0
1724,2325.0,4125.0,3286.0
1725,2325.0,2267.0,3286.0
1726,2325.0,2267.0,3286.0
1727,2325.0,1760.0,3286.0
1728,2325.0,1760.0,3286.0
1729,2325.0,1369.0,3286.0
1730,2325.0,1369.0,3286.0
1731,2325.0,1369.0,3286.0
1732,2325.0,1369.0,3286.0
1733,2325.0,1369.0,5820.0
1734,2325.0,1369.0,5820.0
1735,2325.0,1369.0,5820.0
1736,2325.0,1369.0,5820.0
1737,2325.0,1369.0,5820.0
1738,2325.0,4654.0,1890.0
1739,2325.0,4654.0,1890.0
1740,2325.0,2027.0,4591.0
1741,2325.0,2027.0,2480.0
1742,2325.0,1654.0,2480.0
1743,2325.0,1654.0,2480.0
1744,2325.0,1654.0,2480.0
1745,2325.0,1654.0,2480.0
1746,2325.0,1654.0,2480.0
1747,2325.0,1654.0,2480.0
1748,2325.0,1654.0,3266.0
1749,2325.0,1654.0,3266.0
1750,2325.0,1654.0,2236.0
1751,2325.0,1654.0,2236.0
1752,20.0,1654.0,2236.0
1753,2325.0,1654.0,2236.0
1754,2325.0,1654.0,2962.0
1755,2325.0,1654.0,2962.0
1756,2325.0,2064.0,2962.0
1757,2325.0,2064.0,2962.0
1758,2325.0,2064.0,2962.0
1759,2325.0,2064.0,2650.0
1760,2325.0,2064.0,2650.0
1761,4725.0,3586.0,2650.0
1762,4725.0,3174.0,2650.0
1763,4725.0,3174.0,2650.0
1764,4725.0,3803.0,2650.0
1765,4725.0,3803.0,2650.0
3490,3885.0,3109.0,3543.0
3491,3885.0,3109.0,3543.0
3492,3885.0,3109.0,3543.0
3493,3885.0,3109.0,3543.0
3494,3885.0,3109.0,3318.0
3495,3885.0,3109.0,3318.0
3496,3885.0,3109.0,3318.0
3497,3885.0,3109.0,3318.0
3498,3885.0,3109.0,3318.0
3499,3885.0,3109.0,3318.0
3500,3885.0,3109.0,3318.0
3501,3885.0,3109.0,3318.0
3502,3885.0,3109.0,3318.0
3503,3885.0,3109.0,3318.0
3504,3885.0,3243.0,3318.0
3505,3885.0,3243.0,3318.0
3506,3885.0,3243.0,3318.0
3507,3703.0,3243.0,3318.0
3508,4013.0,3243.0,3318.0
3509,3677.0,3243.0,3318.0
3510,3677.0,3243.0,3318.0
3511,3677.0,3243.0,1934.0
3512,3677.0,3243.0,1934.0
3513,570.0,3243.0,3116.0
3514,3677.0,3243.0,3116.0
3515,3677.0,3243.0,2110.0
3516,3976.0,3425.0,2110.0
3517,3985.0,3425.0,2110.0
3518,3985.0,3425.0,2110.0
3519,6721.0,3425.0,2110.0
3520,6721.0,3425.0,2110.0
3521,6721.0,3425.0,2110.0
3522,6721.0,3425.0,2110.0
3523,6721.0,3425.0,2110.0
3524,6721.0,3425.0,2110.0
3525,6721.0,3425.0,2422.0
3526,6721.0,2904.0,2422.0
3527,6721.0,2904.0,2422.0
3528,6721.0,2904.0,2282.0
3529,39851.0,2904.0,3271.0
3530,67221.0,2904.0,3271.0
3531,6721.0,2904.0,1081.0
3532,6721.0,2904.0,4082.0
3533,6721.0,2904.0,1918.0
3534,6721.0,2904.0,1918.0
3535,6721.0,2904.0,2451.0
3536,6721.0,2904.0,2451.0
3537,6721.0,2904.0,1655.0
3538,6721.0,2904.0,1655.0
3539,6721.0,2904.0,1655.0
3540,6721.0,2904.0,1655.0
3541,6721.0,2904.0,1655.0
3542,6721.0,2904.0,1655.0
3543,6721.0,2904.0,1655.0
3544,6721.0,2904.0,1655.0
3545,6721.0,2904.0,1719.0
3546,6721.0,2904.0,1719.0
3547,6721.0,2904.0,3484.0
3548,6721.0,2904.0,3484.0
3549,6721.0,2904.0,3484.0
3550,6721.0,2904.0,3484.0
3551,6721.0,2904.0,3484.0
3552,6721.0,2904.0,3484.0
3553,8345.0,2904.0,3484.0
3554,8345.0,2904.0,3484.0
3555,8345.0,2904.0,3061.0
3556,8345.0,2904.0,3061.0
3557,8345.0,2904.0,3061.0
3558,8345.0,2904.0,3061.0
3559,8345.0,2904.0,3141.0
3560,8345.0,2904.0,3141.0
3561,8345.0,2904.0,3141.0
3562,8345.0,2904.0,3141.0
3563,8345.0,4842.0,3141.0
3564,8345.0,4842.0,579.0
3565,8345.0,4842.0,579.0
3566,8345.0,4842.0,2056.0
3567,8345.0,4842.0,2056.0
3568,8345.0,4842.0,2056.0
3569,8345.0,4842.0,2056.0
3570,8345.0,4842.0,2037.0
3571,8345.0,4842.0,2037.0
3572,8345.0,4842.0,2037.0
3573,8345.0,4842.0,2037.0
3574,8345.0,4842.0,4436.0
3575,8345.0,4842.0,4436.0
3576,4082.0,3868.0,2059.0
3577,4082.0,3868.0,2059.0
3578,4082.0,3868.0,2059.0
3579,4082.0,3868.0,2059.0
3580,4082.0,3868.0,2802.0
3581,4082.0,3868.0,2802.0
3582,4082.0,3868.0,2802.0
3583,4082.0,3868.0,2802.0
3584,4082.0,3868.0,2802.0
3585,4082.0,3868.0,2802.0
3586,4082.0,3868.0,2802.0
3587,4082.0,3868.0,2802.0
3588,4082.0,3868.0,2802.0
3589,7097.0,3868.0,2802.0
3590,7097.0,3868.0,2802.0
3591,7097.0,3868.0,3510.0
3592,7097.0,3868.0,1434.0
3593,6879.0,3868.0,1434.0
3594,6879.0,2534.0,1434.0
3595,6879.0,2534.0,1434.0
3596,6879.0,2534.0,1434.0
3597,6879.0,2534.0,1434.0
3598,6879.0,2534.0,1434.0
3599,6879.0,2534.0,1434.0
3600,6879.0,2534.0,1434.0
3601,6879.0,2534.0,1434.0
3602,6879.0,2534.0,1434.0
3603,6879.0,2534.0,1434.0
3604,6879.0,1966.0,1434.0
3605,6879.0,1966.0,1434.0
3606,6879.0,2606.0,1434.0
3607,6879.0,2606.0,1434.0
3608,6879.0,2606.0,1434.0
3609,6879.0,2606.0,1434.0
3610,6879.0,2606.0,1434.0
3611,6879.0,2606.0,2659.0
3612,6879.0,2606.0,2659.0
3613,6879.0,2606.0,4606.0
3614,6879.0,2606.0,2795.0
3615,6879.0,2606.0,2795.0
3616,6879.0,2606.0,3380.0
3617,6879.0,2606.0,3380.0
3618,6879.0,2606.0,3380.0
3619,6879.0,2606.0,3380.0
3620,6879.0,2606.0,3380.0
3621,6879.0,2606.0,3337.0
3622,6879.0,2606.0,3337.0
3623,6879.0,2606.0,3337.0
3624,6879.0,3597.0,3337.0
3625,6879.0,3597.0,3065.0
3626,6879.0,3597.0,3065.0
3770,1164.0,3637.0,5810.0
3771,1164.0,3637.0,5810.0
3772,1164.0,3637.0,5810.0
3773,1164.0,3637.0,5810.0
3774,1164.0,3637.0,5810.0
3775,1164.0,3637.0,5810.0
3776,1164.0,3637.0,5810.0
3777,1164.0,3637.0,5810.0
3778,1164.0,3637.0,5810.0
3779,1164.0,3637.0,5810.0
3780,1.0,3637.0,5810.0
3781,1164.0,3637.0,5810.0
3782,1164.0,3637.0,5810.0
3783,1164.0,3637.0,5810.0
3784,1164.0,3637.0,5810.0
3785,752.0,3637.0,5810.0
3786,752.0,3637.0,5810.0
3787,710.0,3637.0,5810.0
3788,110.0,3637.0,5810.0
3789,7710.0,3637.0,5810.0
3790,710.0,3637.0,5810.0
3791,710.0,3637.0,5810.0
3792,710.0,3637.0,5810.0
3793,710.0,3637.0,5810.0
3794,710.0,3637.0,5810.0
3795,710.0,3637.0,5810.0
3796,710.0,3637.0,5810.0
3797,710.0,3637.0,5810.0
3798,71710.0,3637.0,5810.0
3799,710.0,3637.0,5810.0
3800,710.0,3637.0,5810.0
3801,710.0,3637.0,5810.0
3802,710.0,3637.0,5810.0
3803,710.0,3637.0,5810.0
3804,710.0,3637.0,5810.0
3805,710.0,3637.0,5810.0
3806,710.0,3637.0,5810.0
3807,710.0,3637.0,5810.0
3808,710.0,3637.0,5810.0
3809,710.0,2645.0,5810.0
3810,710.0,2645.0,5810.0
3811,710.0,2645.0,5810.0
3812,710.0,2645.0,5810.0
3813,710.0,2645.0,5810.0
3814,710.0,2645.0,4131.0
3815,710.0,2645.0,4131.0
3816,710.0,2645.0,4131.0
3817,710.0,2645.0,4131.0
3818,710.0,2645.0,4131.0
3819,710.0,2645.0,4131.0
3820,710.0,2645.0,4131.0
3821,710.0,3915.0,4131.0
3822,710.0,3915.0,4131.0
3823,710.0,3915.0,4131.0
3824,710.0,3915.0,4131.0
3825,710.0,3915.0,4131.0
3826,710.0,2551.0,4131.0
3827,710.0,2853.0,4131.0
3828,710.0,2853.0,4131.0
3829,710.0,2853.0,4131.0
3830,710.0,2853.0,4131.0
3831,856.0,2853.0,4131.0
3832,856.0,2853.0,4131.0
3833,856.0,2853.0,4131.0
3834,856.0,2853.0,4131.0
3835,856.0,2853.0,4131.0
3836,359.0,2853.0,4131.0
3837,359.0,2853.0,4131.0
3838,359.0,3619.0,4131.0
3839,359.0,3619.0,4131.0
3840,1056.0,3619.0,4131.0
3841,1056.0,2727.0,4131.0
3842,1056.0,2727.0,4131.0
3843,1056.0,2679.0,4131.0
3844,1056.0,2679.0,4131.0
3845,1056.0,1863.0,4131.0
3846,1056.0,1863.0,4131.0
3847,1056.0,1863.0,4131.0
3848,1056.0,4401.0,4131.0
3849,1056.0,4401.0,4131.0
3850,1056.0,4401.0,4131.0
3851,1056.0,4401.0,4131.0
3852,40.0,4401.0,4131.0
3853,1056.0,4401.0,4131.0
3854,105.0,4401.0,4131.0
3855,1056056.0,4401.0,4131.0
3856,1056.0,4401.0,4131.0
3857,1056.0,4401.0,4131.0
3858,1056.0,4401.0,4131.0
3859,1056.0,4401.0,4131.0
3860,1056.0,4401.0,4131.0
3861,1056.0,4401.0,4131.0
3862,1056.0,4401.0,4131.0
3863,1056.0,4401.0,4131.0
3864,1056.0,4401.0,4131.0
3865,1056.0,4401.0,4131.0
3866,1056.0,4401.0,4131.0
3867,1056.0,4401.0,4131.0
3868,1056.0,4401.0,4131.0
3869,1056.0,4401.0,4131.0
3870,1056.0,4768.0,4131.0
3871,1056.0,4768.0,4131.0
3872,1056.0,4768.0,4131.0
3873,1056.0,4768.0,4131.0
3874,1056.0,2379.0,4131.0
3875,1056.0,2379.0,4131.0
3876,1056.0,2379.0,4131.0
3877,1056.0,2379.0,4131.0
3878,1056.0,2379.0,4131.0
3879,1056.0,2379.0,4131.0
3880,1056.0,2379.0,4131.0
3881,1056.0,2379.0,4131.0
3882,1056.0,2379.0,4131.0
3883,1056.0,2379.0,4131.0
3884,855.0,2379.0,4131.0
3885,855.0,2379.0,4131.0
3886,1112.0,2379.0,4131.0
3887,1112.0,2379.0,4131.0
3888,1112.0,2379.0,4131.0
3889,1112.0,2379.0,4131.0
3890,775.0,2379.0,4131.0
3891,775.0,2379.0,4131.0
3892,775.0,2379.0,4131.0
3893,775.0,2379.0,4131.0
3894,775.0,3519.0,4131.0
3895,775.0,3519.0,4131.0
3896,775.0,3519.0,4131.0
3897,775.0,3519.0,4131.0
3898,775.0,1749.0,4131.0
3899,775.0,1749.0,4131.0
3900,775.0,1749.0,4131.0
3901,775.0,1749.0,4131.0
3902,775.0,1749.0,4131.0
3903,775.0,1749.0,4131.0
3904,775.0,1749.0,4131.0
3905,775.0,1749.0,4131.0
3906,775.0,1749.0,4131.0
3907,775.0,1749.0,4131.0
3908,775.0,1749.0,4131.0
3909,775.0,1749.0,4131.0
3910,775.0,1749.0,4131.0
3911,775.0,1749.0,4131.0
3912,775.0,1749.0,4131.0
3913,775.0,1749.0,4131.0
4742,676.0,1254.0,4328.0
4743,676.0,1254.0,2609.0
4744,676.0,1254.0,2609.0
4745,676.0,1254.0,2609.0
4746,676.0,1254.0,2609.0
4747,676.0,1254.0,2609.0
4748,676.0,1254.0,2609.0
4749,609609.0,1254.0,2609.0
4750,1279.0,1254.0,2609.0
4751,1279.0,1254.0,2609.0
4752,1279.0,1254.0,2609.0
4753,1279.0,1254.0,2609.0
4754,1279.0,1254.0,2609.0
4755,1279.0,1254.0,2609.0
4756,1279.0,1254.0,2609.0
4757,1279.0,1254.0,2609.0
4758,1279.0,1254.0,2609.0
4759,11279.0,3806.0,2609.0
4760,1279.0,3806.0,2609.0
4761,1279.0,3806.0,2609.0
4762,1734.0,3806.0,2609.0
4763,1734.0,3806.0,2609.0
4764,1734.0,3806.0,2609.0
4765,1734.0,3806.0,2609.0
4766,1734.0,3806.0,2609.0
4767,1734.0,2662.0,2609.0
4768,1734.0,2662.0,2609.0
4769,1734.0,2662.0,2609.0
4770,1734.0,2662.0,2609.0
4771,1734.0,2530.0,2609.0
4772,1734.0,2530.0,2609.0
4773,1734.0,4284.0,2609.0
4774,1734.0,4284.0,2609.0
4775,1734.0,4284.0,2609.0
4776,1734.0,4284.0,2609.0
4777,1607.0,4284.0,2609.0
4778,1607.0,4284.0,2609.0
4779,1607.0,4284.0,2609.0
4780,1613.0,4284.0,2609.0
4781,1613.0,4284.0,2609.0
4782,1613.0,4284.0,2609.0
4783,1613.0,4284.0,2609.0
4784,1613.0,4284.0,2609.0
4785,13.0,4128.0,2609.0
4786,1613.0,4128.0,2609.0
4787,1613.0,4128.0,2609.0
4788,1613.0,4128.0,2609.0
4789,1613.0,4128.0,2609.0
4790,1613.0,4128.0,2609.0
4791,1613.0,2682.0,2609.0
4792,1613.0,2682.0,2609.0
4793,1613.0,2682.0,2609.0
4794,1613.0,2682.0,2609.0
4795,1613.0,2682.0,2609.0
4796,3.0,3138.0,2609.0
4797,1611613.0,3138.0,2609.0
4798,1613.0,3138.0,2609.0
4799,1613.0,3138.0,2512.0
4800,1613.0,1748.0,2512.0
4801,1613.0,1748.0,2512.0
4802,1613.0,1748.0,2512.0
4803,1613.0,1748.0,2512.0
4804,1613.0,1748.0,2512.0
4805,1613.0,1748.0,2512.0
4806,1613.0,1748.0,2512.0
4807,1613.0,3741.0,2512.0
4808,1613.0,3741.0,2512.0
4809,1613.0,3741.0,2512.0
4810,1613.0,3741.0,2512.0
4811,1613.0,3741.0,2512.0
4812,1613.0,3741.0,2512.0
4813,1613.0,3741.0,2512.0
4814,1613.0,3741.0,2512.0
4815,1613.0,3741.0,2512.0
4816,1613.0,3741.0,2512.0
4817,1613.0,3741.0,2512.0
4818,1613.0,3741.0,2512.0
4819,1613.0,3741.0,2512.0
4820,1613.0,3741.0,2512.0
4821,1613.0,3741.0,2512.0
4822,1613.0,3741.0,2512.0
4823,1613.0,3741.0,2512.0
4824,1613.0,3741.0,2512.0
4825,1613.0,3741.0,2512.0
4826,1613.0,3741.0,2512.0
4827,1613.0,3741.0,2512.0
4828,1613.0,3741.0,2512.0
4829,1613.0,3741.0,2512.0
4830,1613.0,2336.0,2512.0
4831,1613.0,2336.0,2512.0
4832,1065.0,2336.0,2512.0
4833,1065.0,2336.0,2512.0
4834,1065.0,2336.0,2512.0
4835,1065.0,2336.0,2512.0
4836,1065.0,2600.0,2512.0
4837,1065.0,2600.0,2512.0
4838,1065.0,2600.0,2512.0
4839,1065.0,2600.0,2512.0
4840,1065.0,2600.0,2512.0
4841,1065.0,3145.0,2512.0
4842,1065.0,3145.0,2512.0
4843,1065.0,3145.0,2512.0
4844,1065.0,3145.0,2512.0
4845,1065.0,3145.0,2512.0
4846,1065.0,3145.0,2512.0
4847,1065.0,1710.0,2512.0
4848,1065.0,2266.0,2512.0
4849,1065.0,2266.0,2512.0
4850,1065.0,2266.0,2512.0
4851,1065.0,2266.0,2512.0
4852,1065.0,2266.0,2512.0
4853,1065.0,2266.0,2512.0
4854,963.0,2266.0,2512.0
4855,963.0,2266.0,2512.0
4856,963.0,3838.0,2512.0
4857,963.0,3838.0,2512.0
4858,963.0,1174.0,2512.0
4859,963.0,1174.0,2512.0
4860,963.0,1174.0,2512.0
4861,126.0,1174.0,2512.0
4862,11126.0,1174.0,2512.0
4863,1126.0,1174.0,2512.0
4864,1126.0,1174.0,2512.0
4865,1126.0,1174.0,2512.0
4866,1126.0,1174.0,2512.0
4867,1126.0,1174.0,2512.0
4868,1126.0,1174.0,2512.0
4869,1126.0,1174.0,2512.0
4870,1126.0,1174.0,2512.0
6508,830.0,2995.0,1701.0
6509,830.0,2995.0,1701.0
6510,830.0,2995.0,1701.0
6511,830.0,2995.0,1701.0
6512,830.0,2995.0,1701.0
6513,830.0,8804.0,1701.0
6514,830.0,8804.0,1701.0
6515,830.0,8804.0,1701.0
6516,935.0,8804.0,1701.0
6517,266.0,8804.0,1701.0
6518,596.0,8804.0,1701.0
6519,295.0,8804.0,1701.0
6520,295.0,8804.0,1701.0
6521,295.0,2101.0,1701.0
6522,295.0,2101.0,1701.0
6523,295.0,2101.0,1701.0
6524,295.0,2101.0,1695.0
6525,295.0,2101.0,1695.0
6526,295.0,2101.0,1695.0
6527,295.0,2101.0,1764.0
6528,295.0,2101.0,1764.0
6529,295.0,2101.0,1764.0
6530,774.0,2101.0,1764.0
6531,774.0,2101.0,1764.0
6532,774.0,2101.0,2956.0
6533,774.0,2101.0,2956.0
6534,774.0,2101.0,2956.0
6535,774.0,2101.0,2956.0
6536,774.0,2101.0,4766.0
6537,774.0,2101.0,4766.0
6538,774.0,2101.0,4766.0
6539,774.0,2204.0,4766.0
6540,1429.0,2204.0,4766.0
6541,1429.0,2204.0,4766.0
6542,1429.0,2204.0,1232.0
6543,1429.0,2204.0,2238.0
6544,1429.0,3990.0,2238.0
6545,1429.0,3990.0,2238.0
6546,1429.0,3990.0,2238.0
6547,1429.0,3990.0,2238.0
6548,1429.0,3990.0,2238.0
6549,1429.0,3990.0,2238.0
6550,1429.0,3990.0,2238.0
6551,1429.0,3990.0,2238.0
6552,1429.0,3990.0,2238.0
6553,1429.0,2957.0,2238.0
6554,1429.0,2957.0,721.0
6555,1429.0,2957.0,721.0
6556,1429.0,2957.0,721.0
6557,1429.0,2957.0,721.0
6558,1429.0,2957.0,2005.0
6559,1429.0,2957.0,2005.0
6560,1429.0,2957.0,2005.0
6561,1429.0,2957.0,2005.0
6562,1429.0,2957.0,2005.0
6563,1429.0,2957.0,2005.0
6564,797.0,2957.0,2005.0
6565,797.0,2957.0,2005.0
6566,797.0,2957.0,2005.0
6567,783.0,2957.0,2005.0
6568,783.0,2957.0,2005.0
6569,783.0,2957.0,2005.0
6570,783.0,2957.0,1244.0
6571,783.0,2957.0,1244.0
6572,783.0,2957.0,1244.0
6573,783.0,2957.0,1244.0
6574,783.0,2957.0,1244.0
6575,783.0,2957.0,1244.0
6576,783.0,2957.0,1244.0
6577,783.0,2957.0,1244.0
6578,783.0,2957.0,1244.0
6579,783.0,2957.0,1244.0
6580,783.0,2957.0,1244.0
6581,783.0,2957.0,1244.0
6582,783.0,2957.0,1244.0
6583,142.0,2169.0,1244.0
6584,783.0,2169.0,1244.0
6585,783.0,2169.0,1244.0
6586,303.0,2169.0,1244.0
6587,354.0,2169.0,1244.0
6588,354.0,2169.0,1244.0
6589,354.0,2169.0,1244.0
6590,354.0,2169.0,1244.0
6591,354.0,2169.0,1244.0
6592,354.0,2169.0,1244.0
6593,354.0,2169.0,1244.0
6594,54.0,2169.0,1244.0
6595,381.0,2169.0,1244.0
6596,381.0,2169.0,1244.0
6597,783381.0,2169.0,1244.0
6598,381.0,2169.0,1244.0
6599,223.0,2169.0,1244.0
6600,223.0,2169.0,1244.0
6601,223.0,2169.0,1244.0
6602,2223.0,2169.0,1244.0
6603,223.0,2169.0,1244.0
6604,291.0,2169.0,1244.0
6605,363.0,2169.0,1244.0
6606,363.0,2169.0,1244.0
6607,363.0,2169.0,1244.0
6608,363.0,2169.0,1244.0
6609,363.0,2169.0,1244.0
6610,363.0,2169.0,1244.0
6611,363.0,2169.0,1244.0
6612,363.0,2169.0,1244.0
6613,363.0,5116.0,1244.0
6614,363.0,5116.0,1244.0
6615,363.0,5116.0,1244.0
6616,363.0,5116.0,1244.0
6617,363.0,5116.0,1244.0
6618,363.0,5116.0,1244.0
6619,363.0,5116.0,1244.0
6620,363.0,3401.0,1244.0
6621,363.0,3401.0,1244.0
6622,363.0,3401.0,1244.0
6623,363.0,3401.0,1244.0
6624,363.0,3401.0,1244.0
6625,363.0,3401.0,1244.0
6626,363.0,3401.0,1244.0
6627,363.0,3401.0,1244.0
6628,363.0,3401.0,1244.0
6629,363.0,3401.0,1478.0
6630,363.0,3401.0,1478.0
6631,363.0,2283.0,1478.0
6632,363.0,2283.0,1478.0
6633,363.0,2283.0,1478.0
6634,363.0,2283.0,1466.0
6635,363.0,2283.0,1466.0
6636,363.0,2283.0,1466.0
6637,363.0,2283.0,1466.0
6638,363.0,2283.0,1466.0
6639,363.0,2283.0,1466.0
6640,363.0,2283.0,1466.0
6641,363.0,2283.0,1466.0
6642,363.0,2283.0,1466.0
8349,750.0,2934.0,1515.0
8350,750.0,2934.0,1515.0
8351,750.0,2934.0,1515.0
8352,10.0,34.0,1515.0
8353,750.0,2518.0,1515.0
8354,750.0,2518.0,1515.0
8355,750.0,3690.0,4468.0
8356,750.0,3690.0,4468.0
8357,750.0,3690.0,4468.0
8358,750.0,3690.0,4468.0
8359,613.0,3690.0,4468.0
8360,860.0,3690.0,4468.0
8361,1737.0,3690.0,4468.0
8362,1737.0,3690.0,4468.0
8363,1737.0,3690.0,4468.0
8364,1737.0,2356.0,4468.0
8365,1737.0,818.0,4468.0
8366,1305.0,818.0,4468.0
8367,1305.0,818.0,4468.0
8368,1305.0,818.0,2431.0
8369,1305.0,818.0,2431.0
8370,1014.0,818.0,2431.0
8371,1014.0,5519.0,2431.0
8372,1014.0,5519.0,2431.0
8373,1014.0,1723.0,2431.0
8374,14.0,1723.0,2431.0
8375,101014.0,1723.0,2431.0
8376,1014.0,4073.0,2431.0
8377,1014.0,4073.0,2431.0
8378,1014.0,3242.0,2431.0
8379,1014.0,3281.0,2431.0
8380,48.0,3281.0,2431.0
8381,1341.0,3281.0,2431.0
8382,441.0,3281.0,2431.0
8383,441.0,3281.0,2431.0
8384,441.0,2499.0,2431.0
8385,441.0,2499.0,2074.0
8386,441.0,2499.0,2074.0
8387,441.0,2499.0,2074.0
8388,441.0,4302.0,2074.0
8389,441.0,4302.0,1750.0
8390,441.0,4302.0,1750.0
8391,441.0,3245.0,1750.0
8392,441.0,3245.0,1750.0
8393,441.0,3850.0,1750.0
8394,441.0,3850.0,1750.0
8395,441.0,1346.0,1750.0
8396,441.0,1346.0,1750.0
8397,441.0,1346.0,1559.0
8398,441.0,1346.0,1559.0
8399,441.0,1346.0,1559.0
8400,441.0,1346.0,2250.0
8401,441.0,1346.0,2250.0
8402,632.0,1346.0,2250.0
8403,632.0,1346.0,2250.0
8404,632.0,1346.0,2250.0
8405,632.0,1346.0,2250.0
8406,2384.0,1346.0,2250.0
8407,2384.0,1346.0,2250.0
8408,2384.0,1346.0,2250.0
8409,2384.0,1346.0,2250.0
8410,2384.0,1353.0,2250.0
8411,2384.0,1353.0,2250.0
8412,2384.0,4410.0,1366.0
8413,2384.0,4410.0,1366.0
8414,2384.0,4410.0,1366.0
8415,2384.0,4410.0,1366.0
8416,2384.0,4410.0,1366.0
8417,2384.0,3617.0,1366.0
8418,2384.0,4262.0,1366.0
8419,2384.0,4262.0,1366.0
8420,2384.0,4262.0,1366.0
8421,2384.0,4262.0,1366.0
8422,2384.0,4262.0,1366.0
8423,2384.0,4262.0,1366.0
8424,2384.0,4262.0,1366.0
8425,2384.0,4262.0,1366.0
8426,2384.0,4262.0,1515.0
8427,2384.0,3134.0,1515.0
8428,2384.0,3134.0,1515.0
8429,2384.0,3134.0,1515.0
8430,2384.0,3134.0,1515.0
8431,2384.0,4309.0,1515.0
8432,2384.0,4309.0,1515.0
8433,2384.0,1936.0,1515.0
8434,2384.0,1936.0,1515.0
8435,296.0,1936.0,1515.0
8436,296.0,1936.0,1515.0
8437,296.0,1936.0,1515.0
8438,296.0,1936.0,1515.0
8439,296.0,1936.0,1515.0
8440,296.0,1936.0,1515.0
8441,296.0,1936.0,1515.0
8442,296.0,1936.0,1515.0
8443,296.0,1936.0,1515.0
8444,296.0,1936.0,1515.0
8445,296.0,1936.0,1515.0
8446,296.0,3928.0,1515.0
8447,296.0,3928.0,1515.0
8448,296.0,4661.0,1515.0
8449,296.0,4661.0,1515.0
8450,296.0,4661.0,1515.0
8451,296.0,4661.0,1515.0
8452,296.0,4661.0,1515.0
8453,1297.0,4661.0,1371.0
8454,1297.0,4661.0,1371.0
8455,1297.0,4429.0,2532.0
8456,1297.0,4429.0,2532.0
8457,1297.0,4429.0,1526.0
8458,1297.0,4429.0,1526.0
8459,1297.0,4429.0,1526.0
8460,1297.0,4429.0,1526.0
8461,1297.0,4429.0,1805.0
8462,1297.0,4429.0,1805.0
8463,1297.0,4429.0,1805.0
8464,1297.0,4429.0,1805.0
8465,1297.0,4429.0,1805.0
8466,1297.0,4429.0,1263.0
8467,1297.0,4429.0,1263.0
8468,1018.0,4429.0,1263.0
8469,1018.0,4429.0,1263.0
8470,1018.0,4429.0,1263.0
8471,1018.0,4429.0,1263.0
8472,938.0,4429.0,1263.0
8473,274.0,4429.0,1263.0
8474,274.0,4429.0,1263.0
8475,274.0,4429.0,1263.0
8476,274.0,4429.0,1263.0
8477,2774.0,4429.0,1263.0
8478,274.0,4429.0,1263.0
8479,274.0,4429.0,1263.0
8480,274.0,3249.0,1263.0
8481,274.0,3249.0,1263.0
8482,274.0,4699.0,1263.0
8483,274.0,4699.0,1263.0
8484,274.0,4268.0,1263.0
8485,274.0,4268.0,1263.0
8486,947.0,4268.0,1263.0
8487,947.0,4268.0,1263.0
8488,560.0,4268.0,1263.0
8489,560.0,4268.0,1263.0
8490,560.0,3111.0,1263.0
8491,560.0,3111.0,1263.0
8492,560.0,3111.0,1263.0
8493,560.0,3111.0,1263.0
8494,560.0,3111.0,1263.0
10133,237.0,296.0,778.0
10134,237.0,296.0,778.0
10135,237.0,296.0,778.0
10136,237.0,214.0,778.0
10137,237.0,159.0,778.0
10138,237.0,159.0,778.0
10139,237.0,226.0,778.0
10140,237.0,226.0,778.0
10141,237.0,226.0,778.0
10142,237.0,226.0,778.0
10143,237.0,226.0,778.0
10144,237.0,226.0,778.0
10145,237.0,226.0,778.0
10146,237.0,226.0,778.0
10147,237.0,226.0,778.0
10148,237.0,226.0,778.0
10149,237.0,119.0,778.0
10150,237.0,119.0,778.0
10151,237.0,119.0,778.0
10152,237.0,250.0,778.0
10153,237.0,250.0,778.0
10154,237.0,250.0,778.0
10155,237.0,250.0,778.0
10156,237.0,255.0,778.0
10157,201.0,255.0,778.0
10158,201.0,255.0,778.0
10159,201.0,555.0,778.0
10160,371.0,418.0,778.0
10161,371.0,418.0,778.0
10162,371.0,418.0,778.0
10163,371.0,220.0,778.0
10164,371.0,220.0,778.0
10165,371.0,220.0,778.0
10166,371.0,172.0,778.0
10167,371.0,172.0,778.0
10168,371.0,172.0,504.0
10169,371.0,172.0,1188.0
10170,371.0,172.0,513.0
10171,371.0,172.0,513.0
10172,371.0,172.0,1319.0
10173,371.0,172.0,1319.0
10174,371.0,172.0,1319.0
10175,371.0,286.0,1319.0
10176,371.0,286.0,1319.0
10177,371.0,286.0,1319.0
10178,371.0,182.0,1319.0
10179,371.0,182.0,1319.0
10180,371.0,182.0,1319.0
10181,371.0,462.0,1319.0
10182,371.0,462.0,1319.0
10183,371.0,462.0,1319.0
10184,371.0,269.0,1319.0
10185,371.0,269.0,1319.0
10186,371.0,260.0,1319.0
10187,371.0,245.0,1319.0
10188,371.0,245.0,1319.0
10189,371.0,245.0,1319.0
10190,371.0,245.0,1319.0
10191,371.0,245.0,1319.0
10192,371.0,245.0,1319.0
10193,371.0,245.0,1319.0
10194,371.0,245.0,1319.0
10195,371.0,245.0,1319.0
10196,371.0,186.0,1319.0
10197,371.0,186.0,1319.0
10198,371.0,186.0,1319.0
10199,371.0,186.0,1319.0
10200,371.0,186.0,1319.0
10201,371.0,186.0,1319.0
10202,371.0,186.0,1319.0
10203,30.0,131.0,1319.0
10204,371.0,131.0,1319.0
10205,371.0,131.0,1319.0
10206,371.0,227.0,1319.0
10207,371.0,227.0,1319.0
10208,371.0,227.0,1319.0
10209,371.0,227.0,1319.0
10210,371.0,227.0,1319.0
10211,371.0,227.0,1319.0
10212,371.0,342.0,1319.0
10213,371.0,331.0,1319.0
10214,371.0,331.0,1319.0
10215,371.0,331.0,1319.0
10216,371.0,331.0,1319.0
10217,371.0,331.0,1319.0
10218,371.0,428.0,1319.0
10219,371.0,428.0,1319.0
10220,371.0,298.0,1319.0
10221,371.0,348.0,1319.0
10222,371.0,348.0,1319.0
10223,371.0,348.0,1319.0
10224,371.0,184.0,1319.0
10225,371.0,184.0,1319.0
10226,452.0,549.0,1319.0
10227,452.0,196.0,1319.0
10228,452.0,201.0,1319.0
10229,452.0,430.0,1319.0
10230,452.0,285.0,1319.0
10231,452.0,178.0,1319.0
10232,376.0,178.0,1319.0
10233,376.0,376.0,1319.0
10234,376.0,376.0,1319.0
10235,376.0,136.0,1319.0
10236,376.0,136.0,1319.0
10237,376.0,118.0,1319.0
10238,376.0,118.0,1319.0
10239,376.0,200.0,1319.0
10240,304.0,200.0,1319.0
10241,304.0,515.0,1319.0
10242,304.0,515.0,1319.0
10243,304.0,515.0,1319.0
10244,304.0,515.0,1319.0
10245,304.0,515.0,1319.0
10246,304.0,515.0,1319.0
10247,3.0,145.0,1319.0
10248,3044.0,145.0,1319.0
10249,304.0,145.0,1319.0
10250,304.0,145.0,1319.0
10251,30404.0,378.0,1319.0
10252,304.0,202.0,1319.0
10253,304.0,202.0,1319.0
10254,304.0,202.0,1319.0
10255,304.0,273.0,1319.0
10256,304.0,450.0,1319.0
10257,304.0,450.0,694.0
10258,304.0,384.0,694.0
10259,275.0,384.0,694.0
10260,275.0,186.0,694.0
10261,27575.0,186.0,694.0
10262,275.0,186.0,724.0
10263,275.0,160.0,724.0
10264,275.0,160.0,724.0
10265,275.0,160.0,724.0
12067,267.0,290.0,492.0
12068,543.0,290.0,492.0
12069,543.0,290.0,492.0
12070,543.0,290.0,492.0
12071,543.0,290.0,492.0
12072,543.0,290.0,492.0
12073,543.0,290.0,492.0
12074,543.0,290.0,492.0
12075,543.0,125.0,492.0
12076,543.0,172.0,492.0
12077,543.0,346.0,492.0
12078,543.0,131.0,492.0
12079,543.0,131.0,492.0
12080,543.0,131.0,492.0
12081,543.0,131.0,492.0
12082,543.0,131.0,1467.0
12083,543.0,264.0,1115.0
12084,543.0,264.0,1115.0
12085,543.0,264.0,1301.0
12086,543.0,264.0,1353.0
12087,543.0,264.0,1353.0
12088,543.0,264.0,603.0
12089,543.0,264.0,603.0
12090,543.0,264.0,603.0
12091,543.0,181.0,639.0
12092,543.0,181.0,639.0
12093,543.0,181.0,639.0
12094,543.0,181.0,1347.0
12095,543.0,181.0,1347.0
12096,543.0,181.0,1347.0
12097,543.0,181.0,999.0
12098,543.0,181.0,1026.0
12099,543.0,181.0,1026.0
12100,543.0,181.0,1026.0
12101,543.0,181.0,1026.0
12102,543.0,181.0,1026.0
12103,543.0,181.0,1026.0
12104,543.0,181.0,717.0
12105,543.0,181.0,717.0
12106,543.0,181.0,717.0
12107,543.0,181.0,717.0
12108,543.0,181.0,717.0
12109,543.0,181.0,717.0
12110,543.0,181.0,717.0
12111,543.0,181.0,717.0
12112,543.0,181.0,717.0
12113,543.0,181.0,717.0
12114,543.0,181.0,1164.0
12115,53.0,181.0,1164.0
12116,543.0,181.0,558.0
12117,543.0,181.0,558.0
12118,543.0,181.0,558.0
12119,543.0,181.0,558.0
12120,543.0,181.0,558.0
12121,543.0,181.0,558.0
12122,543.0,181.0,829.0
12123,43.0,181.0,829.0
12124,543.0,181.0,829.0
12125,543.0,181.0,829.0
12126,543.0,181.0,829.0
12127,543.0,181.0,829.0
12128,543.0,181.0,829.0
12129,543.0,181.0,829.0
12130,543.0,181.0,829.0
12131,543.0,181.0,829.0
12132,543.0,181.0,829.0
12133,543.0,181.0,829.0
12134,543.0,181.0,829.0
12135,543.0,181.0,829.0
12136,543.0,181.0,829.0
12137,543.0,181.0,829.0
12138,543.0,264.0,829.0
12139,543.0,264.0,829.0
12140,543.0,264.0,829.0
12141,543.0,264.0,829.0
12142,543.0,264.0,829.0
12143,543.0,264.0,829.0
12144,543.0,264.0,829.0
12145,543.0,264.0,829.0
12146,543.0,264.0,1036.0
12147,543.0,264.0,1036.0
12148,543.0,264.0,1036.0
12149,543.0,264.0,1036.0
12150,543.0,264.0,1036.0
12151,543.0,264.0,1036.0
12152,543.0,264.0,1036.0
12153,543.0,264.0,1036.0
12154,543.0,264.0,1036.0
12155,543.0,355.0,1036.0
12156,543.0,355.0,1036.0
12157,543.0,355.0,1036.0
12158,543.0,355.0,1036.0
12159,543.0,355.0,869.0
12160,543.0,355.0,869.0
12161,543.0,355.0,869.0
12162,543.0,355.0,869.0
12163,543.0,355.0,869.0
12164,543.0,355.0,869.0
12165,543.0,355.0,869.0
12166,543.0,355.0,869.0
12167,547.0,355.0,869.0
12168,547.0,355.0,869.0
12169,360.0,355.0,869.0
12170,360.0,355.0,869.0
12171,295.0,355.0,869.0
12172,295.0,355.0,869.0
12173,435.0,355.0,869.0
12174,536.0,355.0,869.0
12175,5536.0,355.0,869.0
12176,536.0,355.0,869.0
12177,536.0,355.0,869.0
12178,536.0,355.0,1532.0
12179,536.0,355.0,1043.0
12180,536.0,355.0,504.0
12181,536.0,355.0,504.0
12182,536.0,355.0,504.0
12183,536.0,355.0,504.0
12184,536.0,355.0,504.0
12185,536.0,183.0,504.0
12186,536.0,183.0,504.0
12187,6.0,183.0,504.0
12188,5336.0,183.0,504.0
12189,536.0,183.0,542.0
12190,451.0,183.0,542.0
12191,451.0,183.0,542.0
12192,451.0,183.0,542.0
12193,451.0,183.0,542.0
12194,451.0,183.0,542.0
12195,451.0,183.0,542.0
12196,451.0,183.0,542.0
12197,451.0,183.0,542.0
12198,451.0,183.0,1194.0
13647,1560.0,1557.0,805.0
13648,1560.0,1557.0,805.0
13649,1560.0,1557.0,805.0
13650,1560.0,1557.0,805.0
13651,1560.0,1557.0,805.0
13652,1560.0,1557.0,805.0
13653,1560.0,1557.0,805.0
13654,1560.0,1557.0,805.0
13655,1560.0,1557.0,805.0
13656,1560.0,1557.0,323.0
13657,1560.0,1557.0,323.0
13658,1560.0,1557.0,323.0
13659,1560.0,1557.0,564.0
13660,1560.0,1557.0,564.0
13661,2721.0,1557.0,564.0
13662,2721.0,2197.0,564.0
13663,1350.0,2439.0,564.0
13664,1350.0,2439.0,303.0
13665,1350.0,2439.0,205.0
13666,1350.0,2439.0,831.0
13667,1350.0,2439.0,831.0
13668,1350.0,2439.0,831.0
13669,1350.0,2439.0,831.0
13670,1350.0,2439.0,831.0
13671,1350.0,2439.0,831.0
13672,1350.0,2439.0,831.0
13673,1350.0,2439.0,69.0
13674,1350.0,2439.0,69.0
13675,1350.0,2439.0,729.0
13676,1350.0,2439.0,729.0
13677,100.0,2439.0,761.0
13678,135350.0,2439.0,599.0
13679,1350.0,2439.0,599.0
13680,1350.0,2439.0,599.0
13681,1350.0,2439.0,599.0
13682,1350.0,2446.0,599.0
13683,1350.0,2446.0,716.0
13684,1350.0,1527.0,716.0
13685,1350.0,1527.0,716.0
13686,1350.0,1527.0,716.0
13687,1350.0,1527.0,716.0
13688,1350.0,1527.0,716.0
13689,1350.0,1527.0,716.0
13690,1350.0,1527.0,716.0
13691,1350.0,1527.0,716.0
13692,1350.0,1527.0,716.0
13693,1350.0,1527.0,716.0
13694,1350.0,1527.0,716.0
13695,1350.0,2519.0,716.0
13696,1350.0,2519.0,716.0
13697,1350.0,2519.0,716.0
13698,1350.0,2519.0,716.0
13699,1350.0,1773.0,472.0
13700,1350.0,1773.0,472.0
13701,1350.0,1773.0,472.0
13702,1.0,1773.0,204.0
13703,1350.0,1773.0,204.0
13704,1350.0,1773.0,204.0
13705,1350.0,1773.0,204.0
13706,1350.0,1773.0,204.0
13707,1350.0,1773.0,548.0
13708,1350.0,1773.0,548.0
13709,1350.0,1773.0,548.0
13710,1350.0,1773.0,548.0
13711,1350.0,1773.0,548.0
13712,1350.0,1773.0,548.0
13713,1350.0,1773.0,548.0
13714,1350.0,1773.0,548.0
13715,1350.0,1773.0,548.0
13716,1350.0,2168.0,548.0
13717,1885.0,2168.0,548.0
13718,1885.0,2168.0,548.0
13719,1885.0,2168.0,548.0
13720,1885.0,2168.0,548.0
13721,1885.0,1881.0,548.0
13722,1885.0,1368.0,548.0
13723,1885.0,1368.0,548.0
13724,1885.0,1368.0,548.0
13725,1885.0,1368.0,279.0
13726,1885.0,1368.0,279.0
13727,1885.0,1368.0,279.0
13728,1885.0,1368.0,279.0
13729,1885.0,1368.0,279.0
13730,1885.0,1368.0,279.0
13731,1885.0,1368.0,279.0
13732,1885.0,1368.0,394.0
13733,1885.0,1368.0,394.0
13734,1885.0,1368.0,394.0
13735,1885.0,1368.0,394.0
13736,1885.0,1368.0,236.0
13737,1885.0,1368.0,236.0
13738,1885.0,1368.0,236.0
13739,1885.0,1368.0,236.0
13740,1885.0,1368.0,710.0
13741,1885.0,1368.0,710.0
13742,1885.0,1368.0,508.0
13743,1885.0,1368.0,508.0
13744,1885.0,1368.0,508.0
13745,1885.0,1368.0,508.0
13746,1885.0,1954.0,508.0
13747,1885.0,1954.0,508.0
13748,1885.0,1954.0,508.0
13749,1885.0,1954.0,239.0
13750,1885.0,1954.0,239.0
13751,1885.0,2066.0,239.0
13752,1885.0,2066.0,239.0
13753,1885.0,2066.0,239.0
13754,1885.0,2066.0,239.0
13755,1885.0,2066.0,239.0
13756,1885.0,2066.0,239.0
13757,1885.0,2066.0,239.0
13758,1885.0,2066.0,239.0
13759,1885.0,2066.0,239.0
13760,1885.0,2066.0,239.0
13761,1885.0,2066.0,239.0
13762,1885.0,2066.0,239.0
13763,989.0,2066.0,239.0
13764,989.0,2066.0,239.0
13765,989.0,2066.0,239.0
13766,989.0,2066.0,239.0
13767,989.0,2066.0,239.0
13768,989.0,1508.0,239.0
13769,989.0,1508.0,239.0
13770,989.0,1200.0,426.0
13771,989.0,1200.0,426.0
13772,989.0,590.0,449.0
13773,989.0,590.0,449.0
13774,989.0,590.0,449.0
13775,989.0,590.0,224.0
13776,989.0,590.0,224.0
13777,989.0,590.0,224.0
13778,989.0,590.0,224.0
13779,989.0,590.0,224.0
13780,989.0,590.0,224.0
13781,989.0,590.0,224.0
13782,989.0,590.0,224.0
13783,989.0,2506.0,224.0
13784,989.0,2506.0,224.0
13785,989.0,2538.0,224.0
13786,989.0,1735.0,224.0
13787,989.0,1735.0,224.0
15549,233.0,2130.0,2036.0
15550,233.0,2130.0,2036.0
15551,233.0,2130.0,2036.0
15552,233.0,2130.0,2036.0
15553,233.0,2130.0,2036.0
15554,233.0,2130.0,2036.0
15555,233.0,2130.0,2036.0
15556,233.0,2130.0,2036.0
15557,465.0,2130.0,2036.0
15558,465.0,2130.0,2568.0
15559,465.0,2130.0,2568.0
15560,577.0,2130.0,2568.0
15561,577.0,2130.0,2568.0
15562,577.0,2130.0,2568.0
15563,577.0,2130.0,2568.0
15564,577.0,2130.0,2568.0
15565,577.0,2130.0,2568.0
15566,577.0,2130.0,2568.0
15567,577.0,2130.0,2568.0
15568,577.0,2130.0,2568.0
15569,577.0,2130.0,1999.0
15570,577.0,2130.0,1999.0
15571,577.0,2130.0,1999.0
15572,577.0,2130.0,1999.0
15573,577.0,2130.0,1999.0
15574,577.0,2130.0,1999.0
15575,577.0,2130.0,2084.0
15576,577.0,2130.0,2084.0
15577,265.0,2130.0,2084.0
15578,598.0,2130.0,2084.0
15579,598.0,2130.0,2084.0
15580,598.0,2130.0,2084.0
15581,598.0,2130.0,2084.0
15582,762.0,2130.0,2084.0
15583,762.0,2130.0,1911.0
15584,414.0,2130.0,1377.0
15585,414.0,2130.0,1377.0
15586,414.0,2130.0,1377.0
15587,414.0,2130.0,1377.0
15588,414.0,1057.0,2508.0
15589,414.0,1057.0,2508.0
15590,414.0,1057.0,580.0
15591,414.0,1057.0,580.0
15592,414.0,1057.0,580.0
15593,414.0,1057.0,580.0
15594,414.0,1057.0,580.0
15595,328.0,1057.0,1839.0
15596,328.0,1057.0,1839.0
15597,328.0,1057.0,1839.0
15598,290.0,1057.0,1839.0
15599,438.0,1057.0,1839.0
15600,438.0,1057.0,1839.0
15601,438.0,1057.0,1839.0
15602,192.0,1057.0,1839.0
15603,372.0,2073.0,1839.0
15604,372.0,2073.0,1839.0
15605,372.0,2073.0,1839.0
15606,372.0,2073.0,1839.0
15607,275.0,2073.0,1839.0
15608,275.0,2073.0,1839.0
15609,275.0,2073.0,1839.0
15610,275.0,2073.0,1839.0
15611,275.0,2073.0,1839.0
15612,275.0,2073.0,1839.0
15613,275.0,2073.0,2856.0
15614,275.0,2073.0,2856.0
15615,275.0,2073.0,2856.0
15616,275.0,2073.0,2856.0
15617,275.0,2073.0,2856.0
15618,275.0,2073.0,1551.0
15619,275.0,2073.0,1551.0
15620,275.0,2073.0,1551.0
15621,275.0,2073.0,1696.0
15622,275.0,2073.0,1696.0
15623,275.0,2073.0,1696.0
15624,275.0,2073.0,2318.0
15625,275.0,2073.0,2318.0
15626,275.0,1699.0,1552.0
15627,379.0,1699.0,1744.0
15628,379.0,1699.0,1331.0
15629,471.0,1699.0,1331.0
15630,471.0,1699.0,1331.0
15631,471.0,1019.0,1271.0
15632,471.0,1019.0,1271.0
15633,471.0,1019.0,1271.0
15634,471.0,1019.0,1271.0
15635,471.0,1435.0,1271.0
15636,471.0,1435.0,1271.0
15637,471.0,1435.0,1271.0
15638,471.0,1435.0,1271.0
15639,182.0,1435.0,1271.0
15640,590.0,1435.0,1271.0
15641,590.0,1435.0,1271.0
15642,359.0,1435.0,1271.0
15643,359.0,1435.0,1271.0
15644,359.0,1445.0,1271.0
15645,359.0,1445.0,1271.0
15646,381.0,1445.0,1271.0
15647,3881.0,1445.0,2345.0
15648,381.0,1445.0,2345.0
15649,192.0,1445.0,2345.0
15650,192.0,1445.0,2345.0
15651,192.0,1445.0,2345.0
15652,192.0,1445.0,2345.0
15653,192.0,1445.0,2345.0
15654,192.0,1445.0,2345.0
15655,749.0,1445.0,2345.0
15656,749.0,1445.0,1785.0
15657,499.0,1445.0,1785.0
15658,200.0,1445.0,1785.0
15659,414.0,1445.0,1785.0
15660,414.0,1445.0,1785.0
15661,414.0,1445.0,1785.0
15662,414.0,1445.0,1785.0
15663,414.0,1445.0,1785.0
15664,414.0,1445.0,1785.0
15665,414.0,1445.0,1785.0
15666,414.0,1445.0,1785.0
15667,414.0,1445.0,1785.0
15668,400.0,1445.0,1785.0
15669,400.0,1445.0,1785.0
15670,400.0,1445.0,1785.0
15671,400.0,1445.0,1785.0
15672,400.0,1445.0,1785.0
15673,400.0,1212.0,1785.0
15674,400.0,1404.0,1785.0
15675,1092.0,1404.0,1785.0
15676,1092.0,1404.0,1785.0
15677,1092.0,1404.0,1785.0
17228,1862.0,1674.0,2205.0
17229,1862.0,1674.0,2205.0
17230,1862.0,1674.0,2205.0
17231,1862.0,1674.0,2205.0
17232,1862.0,1478.0,2205.0
17233,2160.0,1478.0,2205.0
17234,2160.0,1478.0,2205.0
17235,2160.0,1238.0,2205.0
17236,2160.0,1238.0,2205.0
17237,2160.0,1238.0,2934.0
17238,2160.0,2986.0,2934.0
17239,2160.0,3138.0,2272.0
17240,2160.0,3138.0,2272.0
17241,2160.0,3138.0,2272.0
17242,2160.0,3138.0,2272.0
17243,2160.0,3138.0,2027.0
17244,2160.0,2277.0,2027.0
17245,2160.0,2277.0,2027.0
17246,2160.0,4998.0,3318.0
17247,2160.0,4998.0,3318.0
17248,2218.0,4998.0,3318.0
17249,2218.0,4998.0,3318.0
17250,1706.0,4998.0,3318.0
17251,1706.0,4998.0,3318.0
17252,803.0,4998.0,3318.0
17253,803.0,4998.0,3318.0
17254,424.0,4998.0,3318.0
17255,392.0,4998.0,3318.0
17256,92.0,4998.0,3318.0
17257,1938.0,4998.0,3318.0
17258,1938.0,4998.0,1640.0
17259,1938.0,4998.0,1640.0
17260,1938.0,4998.0,1640.0
17261,1938.0,4998.0,1640.0
17262,1938.0,4998.0,1640.0
17263,1938.0,4998.0,2461.0
17264,1432.0,4998.0,2461.0
17265,1432.0,4998.0,2461.0
17266,1432.0,4998.0,2461.0
17267,1432.0,4998.0,2461.0
17268,1.0,3200.0,2461.0
17269,1695.0,3200.0,2461.0
17270,1695.0,3200.0,2905.0
17271,195.0,3200.0,3381.0
17272,16695.0,2555.0,3381.0
17273,1695.0,2974.0,3381.0
17274,1695.0,2974.0,3381.0
17275,1695.0,2974.0,3381.0
17276,1695.0,2974.0,3381.0
17277,1695.0,2974.0,3381.0
17278,1695.0,2974.0,1441.0
17279,1695.0,2974.0,1441.0
17280,1695.0,2974.0,1441.0
17281,1307.0,2974.0,1441.0
17282,1307.0,2974.0,1441.0
17283,1307.0,2974.0,3325.0
17284,1307.0,2974.0,3325.0
17285,1307.0,2974.0,3325.0
17286,717.0,2974.0,3325.0
17287,717.0,2974.0,3325.0
17288,717.0,2974.0,3325.0
17289,717.0,951.0,3325.0
17290,717.0,951.0,3325.0
17291,717.0,951.0,3325.0
17292,717.0,951.0,3325.0
17293,1176.0,951.0,3325.0
17294,1176.0,951.0,3325.0
17295,1176.0,951.0,3325.0
17296,1176.0,951.0,3325.0
17297,1176.0,951.0,3325.0
17298,1176.0,951.0,3325.0
17299,1176.0,951.0,3325.0
17300,1176.0,951.0,1853.0
17301,1176.0,951.0,1853.0
17302,1176.0,951.0,1853.0
17303,1176.0,951.0,1853.0
17304,1176.0,951.0,2068.0
17305,1176.0,951.0,2068.0
17306,1176.0,951.0,2068.0
17307,1176.0,951.0,2068.0
17308,1176.0,951.0,2068.0
17309,1176.0,951.0,1595.0
17310,1176.0,951.0,1595.0
17311,1176.0,951.0,2701.0
17312,1176.0,951.0,2701.0
17313,1176.0,951.0,2701.0
17314,1176.0,951.0,2701.0
17315,1176.0,2301.0,2701.0
17316,1176.0,1518.0,2701.0
17317,1176.0,1518.0,2701.0
17318,1176.0,1518.0,2701.0
17319,1176.0,1518.0,2701.0
17320,1176.0,1518.0,2701.0
17321,1600.0,1518.0,2701.0
17322,2261.0,1518.0,2701.0
17323,1582.0,1518.0,2701.0
17324,1582.0,1518.0,2701.0
17325,1582.0,1518.0,2701.0
17326,1582.0,1518.0,2701.0
17327,1582.0,1518.0,2701.0
17328,1304.0,1518.0,2701.0
17329,1304.0,1518.0,2701.0
17330,1583.0,1518.0,2701.0
17331,11583.0,1518.0,2701.0
17332,1583.0,1518.0,2701.0
17333,1719.0,1518.0,2701.0
17334,1719.0,1518.0,2701.0
17335,1719.0,1518.0,2701.0
17336,1719.0,1518.0,2701.0
17337,1719.0,1518.0,2701.0
17338,1719.0,1435.0,2701.0
17339,1719.0,1435.0,2701.0
17340,1719.0,1435.0,2701.0
17341,1719.0,1435.0,2701.0
17342,1719.0,1435.0,1701.0
17343,1719.0,1435.0,1701.0
17344,1719.0,1435.0,2962.0
17345,1719.0,1435.0,2962.0
17346,2136.0,1435.0,1943.0
17347,2136.0,1435.0,1397.0
17348,1383.0,1435.0,1397.0
17349,1383.0,1435.0,1397.0
17350,1383.0,1435.0,1397.0
17351,1383.0,1435.0,1397.0
17352,1383.0,1435.0,1397.0
17353,1383.0,1435.0,3379.0
17354,1383.0,1435.0,3379.0
17355,1383.0,1435.0,2265.0
17356,1383.0,1435.0,2265.0
17357,1383.0,1435.0,2265.0
17358,1383.0,1435.0,2265.0
17359,1383.0,2154.0,2265.0
17360,1383.0,2154.0,2265.0
17573,1585.0,16391585.0,1639.0
17574,1585.0,16391585.0,1639.0
17575,1702.0,1.0,1259.0
17576,3205.0,12205.0,1231.0
18379,905.0,35705.0,3570.0
18380,1707.0,307.0,3169.0
18381,1208.0,1810.0,617.0
18382,1208.0,1810.0,617.0
18383,8.0,1810.0,617.0
18384,12208.0,1810.0,617.0
18385,1208.0,1810.0,617.0
18386,1208.0,1810.0,617.0
18387,695.0,1810.0,617.0
18388,695.0,1810.0,617.0
18389,695.0,1810.0,617.0
18390,695.0,1810.0,617.0
18391,695.0,1810.0,617.0
18392,695.0,1810.0,617.0
18393,695.0,1810.0,617.0
18394,695.0,1810.0,617.0
18395,15.0,1810.0,617.0
18396,69695.0,1810.0,617.0
18397,695.0,1810.0,617.0
18398,695.0,1810.0,617.0
18399,695.0,1810.0,617.0
18400,695.0,1810.0,617.0
18401,695.0,1810.0,617.0
18402,695.0,1810.0,617.0
18403,695.0,1810.0,617.0
18404,695.0,1810.0,617.0
18405,695.0,1810.0,617.0
18406,695.0,1810.0,617.0
18407,695.0,1810.0,617.0
18408,695.0,1810.0,617.0
18409,695.0,1810.0,617.0
18410,695.0,1810.0,617.0
18411,695.0,1810.0,617.0
18412,1330.0,1810.0,617.0
18413,1330.0,1810.0,617.0
18414,1330.0,1810.0,617.0
18415,1330.0,1810.0,617.0
18416,1330.0,1810.0,617.0
18417,1330.0,1810.0,617.0
18418,1330.0,1810.0,617.0
18419,1330.0,1810.0,617.0
18420,1330.0,1810.0,617.0
18421,1330.0,1810.0,617.0
18422,1330.0,1810.0,617.0
18423,1330.0,1810.0,617.0
18424,1330.0,1810.0,617.0
18425,1330.0,1810.0,617.0
18426,1330.0,1810.0,617.0
18427,1330.0,1810.0,617.0
18428,1330.0,1810.0,617.0
18429,1330.0,1810.0,617.0
18430,1330.0,1810.0,617.0
18431,1330.0,1810.0,617.0
18432,1330.0,1810.0,617.0
18433,1330.0,1810.0,617.0
18434,1330.0,1810.0,617.0
18435,1330.0,1810.0,617.0
18436,1330.0,1810.0,617.0
18437,1330.0,1810.0,617.0
18438,1330.0,1810.0,617.0
18439,1330.0,1810.0,617.0
18440,1330.0,1810.0,617.0
18441,1330.0,1810.0,617.0
18442,1330.0,1810.0,617.0
18443,1330.0,1810.0,617.0
18444,1330.0,1810.0,617.0
18445,1330.0,1810.0,617.0
18446,1330.0,1810.0,617.0
18447,1330.0,1810.0,617.0
18448,1330.0,1810.0,617.0
18449,1330.0,1810.0,617.0
18450,1330.0,1810.0,617.0
18451,1330.0,1810.0,617.0
18452,1330.0,1810.0,617.0
19527,1439.0,2788.0,3935.0
19528,1439.0,2788.0,3935.0
19529,1439.0,2788.0,3935.0
19530,1439.0,2788.0,3935.0
19531,1439.0,1957.0,5767.0
19532,1439.0,1957.0,5767.0
19533,1439.0,1957.0,5767.0
19534,1439.0,1957.0,5767.0
19535,1439.0,1957.0,5767.0
19536,1439.0,1957.0,5767.0
19537,1439.0,1957.0,5767.0
19538,1439.0,1957.0,5767.0
19539,1439.0,1957.0,5767.0
19540,1439.0,1987.0,5767.0
19541,1439.0,1987.0,5767.0
19542,1439.0,1987.0,5767.0
19543,1439.0,1987.0,5767.0
19544,1439.0,1987.0,5767.0
19545,1439.0,1987.0,5767.0
19546,1439.0,1987.0,5767.0
19547,1439.0,1987.0,5767.0
19548,1439.0,1987.0,5767.0
19549,621.0,1987.0,5767.0
19550,621.0,1987.0,5767.0
19551,621.0,1987.0,5767.0
19552,621.0,1987.0,5767.0
19553,621.0,1987.0,5767.0
19554,621.0,1987.0,5767.0
19555,621.0,1987.0,5767.0
19556,990.0,1987.0,5767.0
19557,990.0,1987.0,5767.0
19558,990.0,2062.0,5767.0
19559,990.0,2062.0,5767.0
19560,990.0,2062.0,5767.0
19561,1054.0,2062.0,5767.0
19562,10544.0,2062.0,5767.0
19563,1054.0,2062.0,5767.0
19564,1054.0,1620.0,5767.0
19565,1054.0,1620.0,5767.0
19566,789.0,1913.0,5767.0
19567,2741.0,1913.0,5767.0
19568,2741.0,1913.0,5767.0
19569,2741.0,1913.0,5767.0
19570,2741.0,1913.0,5767.0
19571,2772.0,1913.0,5767.0
19572,2772.0,1913.0,5767.0
19573,547.0,1913.0,5767.0
19574,547.0,1913.0,5767.0
19575,1569.0,1913.0,5767.0
19576,1569.0,1913.0,5767.0
19577,1569.0,1913.0,5767.0
19578,1569.0,2723.0,5767.0
19579,1569.0,2723.0,5767.0
19580,866.0,2723.0,5767.0
19581,866.0,2723.0,5767.0
19582,866.0,2723.0,5767.0
19583,866.0,2723.0,5767.0
19584,866.0,1872.0,5767.0
19585,866.0,1872.0,5767.0
19586,866.0,1872.0,5767.0
19587,866.0,1872.0,5767.0
19588,866.0,1872.0,5767.0
19589,1805.0,1872.0,5767.0
19590,1805.0,1872.0,5767.0
19591,1805.0,1872.0,5767.0
19592,1805.0,1872.0,5767.0
19593,1805.0,1872.0,5767.0
19594,1466.0,1872.0,5767.0
19595,1466.0,1872.0,5767.0
19596,1717.0,1872.0,5767.0
19597,2741000.0,1872.0,5767.0
19598,1091.0,1872.0,5767.0
19599,1091.0,1872.0,5767.0
19600,1091.0,5872.0,5767.0
19601,1091.0,5872.0,5767.0
19602,1091.0,5872.0,5767.0
19603,566.0,5872.0,5767.0
19604,566.0,5872.0,5767.0
19605,566.0,5872.0,5767.0
19606,109566.0,1278.0,5767.0
19607,1271.0,1278.0,5767.0
19608,1271.0,1278.0,5767.0
19609,1271.0,1278.0,5767.0
19610,848.0,1278.0,5767.0
19611,848.0,1278.0,5767.0
19612,848.0,1278.0,5767.0
19613,848.0,1278.0,5767.0
19614,848.0,1278.0,5767.0
19615,848.0,1278.0,5767.0
19616,848.0,1278.0,5767.0
19617,848.0,2529.0,5767.0
19618,848.0,2529.0,5767.0
19619,1160.0,2529.0,5767.0
19620,1160.0,2529.0,5767.0
19621,1160.0,2529.0,5767.0
19622,1160.0,2529.0,5767.0
19623,1347.0,2529.0,5767.0
19624,2066.0,2529.0,5767.0
19625,409.0,2529.0,5767.0
19626,409.0,2529.0,5767.0
19627,409.0,2529.0,5767.0
19628,409.0,2529.0,5767.0
19629,409.0,2529.0,5767.0
19630,409.0,2529.0,5767.0
19631,409.0,2529.0,5767.0
19632,1298.0,2529.0,5767.0
19633,1298.0,2529.0,5767.0
19634,1298.0,2529.0,5767.0
19635,1298.0,2529.0,5767.0
19636,1298.0,2529.0,5767.0
19637,1298.0,2529.0,5767.0
19638,1298298.0,2529.0,5767.0
19639,1298.0,2529.0,5767.0
19640,1298.0,2529.0,5767.0
19641,1298.0,2529.0,5767.0
19642,1298.0,2529.0,5767.0
19643,1298.0,2529.0,5767.0
19644,11249.0,2529.0,5767.0
19645,1178.0,2529.0,5767.0
19646,1178.0,2529.0,5767.0
19647,1178.0,2529.0,5767.0
19648,1178.0,2529.0,5767.0
19649,1178.0,2529.0,5767.0
19650,1178.0,2529.0,5767.0
19651,1178.0,2529.0,5767.0
19652,1178.0,2529.0,5767.0
19653,1178.0,2576.0,5767.0
19654,1178.0,2576.0,5767.0
19655,1178.0,2576.0,5767.0
19656,1178.0,2576.0,5767.0
19657,1894.0,2576.0,5767.0
19658,1329.0,2576.0,5767.0
19659,2292.0,2576.0,5767.0
19660,339.0,2576.0,5767.0
19661,2011.0,2576.0,5767.0
19662,2011.0,2576.0,5767.0
19663,2011.0,2576.0,5767.0
19664,2011.0,2576.0,5767.0
19665,2011.0,2576.0,5767.0
19666,2011.0,2576.0,5767.0
19667,2011.0,2576.0,5767.0
20746,1484.0,1705.0,2165.0
20747,1484.0,3380.0,2165.0
20748,1484.0,3380.0,2165.0
20749,1484.0,3380.0,2165.0
20750,1484.0,3380.0,2165.0
20751,1484.0,3380.0,2165.0
20752,1183.0,2401.0,2165.0
20753,1183.0,2401.0,2165.0
20754,1183.0,2401.0,2165.0
20755,1183.0,2401.0,2165.0
20756,1922.0,2401.0,2165.0
20757,1922.0,1834.0,2165.0
20758,1922.0,1834.0,2165.0
20759,1922.0,1834.0,2165.0
20760,1922.0,1834.0,2165.0
20761,1922.0,1834.0,1774.0
20762,22.0,1834.0,1774.0
20763,1922.0,1834.0,1244.0
20764,1922.0,1834.0,1244.0
20765,1922.0,1834.0,1244.0
20766,1922.0,2438.0,1244.0
20767,1922.0,2438.0,1244.0
20768,1922.0,2438.0,1244.0
20769,963.0,2438.0,1244.0
20770,963.0,2438.0,1244.0
20771,963.0,2438.0,1244.0
20772,963.0,1048.0,1244.0
20773,963.0,2510.0,1244.0
20774,963.0,2510.0,1244.0
20775,372.0,2510.0,1244.0
20776,1289.0,2510.0,2319.0
20777,1289.0,2510.0,2319.0
20778,1289.0,2510.0,2319.0
20779,1289.0,2510.0,2319.0
20780,1289.0,2510.0,2319.0
20781,1289.0,2000.0,2319.0
20782,1225.0,2000.0,2304.0
20783,1225.0,2000.0,2304.0
20784,1225.0,2000.0,2304.0
20785,1864.0,2044.0,2304.0
20786,1864.0,2044.0,2304.0
20787,1864.0,2044.0,2304.0
20788,1864.0,2044.0,2304.0
20789,1864.0,1659.0,2304.0
20790,1864.0,1659.0,2304.0
20791,1598.0,1659.0,2304.0
20792,677.0,1659.0,2304.0
20793,677.0,1659.0,2304.0
20794,677.0,1659.0,2304.0
20795,1210.0,1659.0,2304.0
20796,1268.0,1659.0,2304.0
20797,1268.0,1659.0,2304.0
20798,1278.0,1659.0,2304.0
20799,1278.0,1659.0,2304.0
20800,1278.0,1659.0,2304.0
20801,1278.0,1659.0,2304.0
20802,1278.0,1659.0,2304.0
20803,1278.0,1659.0,2304.0
20804,1278.0,1659.0,2304.0
20805,1278.0,1659.0,2304.0
20806,1278.0,1659.0,2304.0
20807,1278.0,1659.0,2304.0
20808,1278.0,1659.0,2304.0
20809,1278.0,1659.0,2550.0
20810,1278.0,1659.0,2550.0
20811,1278.0,1659.0,2550.0
20812,1278.0,1659.0,2550.0
20813,1278.0,1659.0,2550.0
20814,1278.0,1659.0,2550.0
20815,1278.0,1659.0,2550.0
20816,1278.0,1659.0,2550.0
20817,1278.0,1659.0,2550.0
20818,1278.0,1659.0,2550.0
20819,1278.0,1659.0,2550.0
20820,1278.0,1659.0,2550.0
20821,1278.0,1659.0,2550.0
20822,1278.0,1659.0,2550.0
20823,1278.0,1659.0,2550.0
20824,1278.0,1659.0,2550.0
20825,1654.0,1659.0,2550.0
20826,1654.0,1659.0,2550.0
20827,1654.0,1659.0,2550.0
20828,1.0,1659.0,2550.0
20829,16544.0,1659.0,2550.0
20830,1654.0,1659.0,2550.0
20831,1654.0,1659.0,2998.0
20832,1654.0,1659.0,2998.0
20833,1403.0,1659.0,2998.0
20834,1403.0,1659.0,2998.0
20835,1082.0,1659.0,2998.0
20836,1446.0,1659.0,2998.0
20837,1446.0,1659.0,2998.0
20838,1446.0,1659.0,2998.0
20839,1446.0,1659.0,2998.0
20840,1446.0,1659.0,2998.0
20841,1446.0,1659.0,2998.0
20842,1446.0,1659.0,2998.0
20843,1446.0,1659.0,2998.0
20844,16500.0,1659.0,2998.0
20845,1446.0,1659.0,2998.0
20846,1446.0,1659.0,2998.0
20847,1446.0,1659.0,2998.0
20848,1446.0,1659.0,2998.0
20849,1446.0,1659.0,2998.0
20850,1446.0,1659.0,2998.0
20851,1446.0,1659.0,2998.0
20852,1446.0,1659.0,2998.0
20853,1446.0,1659.0,2998.0
20854,1446.0,2653.0,2998.0
20855,1446.0,1500.0,2998.0
20856,1446.0,1500.0,2998.0
20857,1446.0,1500.0,2998.0
20858,1446.0,1500.0,2998.0
20859,1446.0,1500.0,2998.0
20860,1446.0,1500.0,2363.0
20861,1446.0,1500.0,2581.0
20862,1446.0,1500.0,2581.0
20863,1446.0,1500.0,2581.0
20864,1446.0,1500.0,2581.0
20865,1446.0,1500.0,2581.0
20866,1446.0,1500.0,2581.0
20867,1446.0,1500.0,2581.0
20868,1446.0,1500.0,2581.0
20869,1446.0,1500.0,4000.0
20870,1446.0,1500.0,4000.0
20871,1446.0,1500.0,4000.0
20872,1446.0,1500.0,4000.0
20873,1446.0,1500.0,4000.0
20874,1446.0,1500.0,4000.0
20875,1446.0,1500.0,4000.0
20876,1446.0,1500.0,4000.0
20877,1446.0,1500.0,4000.0
20878,1446.0,1500.0,4000.0
20879,144446.0,1500.0,1817.0
20880,1446.0,1500.0,1817.0
20881,1193.0,1500.0,1817.0
20882,1193.0,1500.0,1817.0
20883,1193.0,1500.0,1817.0
20884,1193.0,1500.0,1817.0
20885,1193.0,1500.0,1817.0
20886,1193.0,1500.0,1817.0
20887,469.0,1500.0,1817.0
20888,469.0,1500.0,1817.0
20889,469.0,1500.0,1310.0
20890,469.0,1500.0,1310.0
22516,1215.0,1094.0,491.0
22517,1215.0,1094.0,491.0
22518,1215.0,1094.0,491.0
22519,1215.0,1094.0,491.0
22520,1215.0,1094.0,491.0
22521,1215.0,1094.0,491.0
22522,1215.0,1094.0,491.0
22523,121501215.0,1094.0,491.0
22524,1215.0,1094.0,491.0
22525,1215.0,1094.0,491.0
22526,1215.0,1094.0,491.0
22527,1215.0,1094.0,563.0
22528,1215.0,1094.0,563.0
22529,1215.0,1094.0,347.0
22530,1215.0,1094.0,481.0
22531,1215.0,1094.0,481.0
22532,1215.0,1094.0,481.0
22533,1215.0,1094.0,481.0
22534,1215.0,1094.0,338.0
22535,1215.0,1094.0,338.0
22536,1215.0,1094.0,317.0
22537,1215.0,1094.0,317.0
22538,1735.0,1094.0,317.0
22539,1735.0,1094.0,317.0
22540,1735.0,1723.0,317.0
22541,1446.0,1723.0,317.0
22542,1446.0,1723.0,652.0
22543,1446.0,1723.0,652.0
22544,1446.0,1723.0,652.0
22545,1446.0,1723.0,652.0
22546,1446.0,1723.0,652.0
22547,1446.0,1723.0,652.0
22548,1446.0,1723.0,553.0
22549,1446.0,1723.0,553.0
22550,1446.0,1723.0,553.0
22551,1446.0,1723.0,553.0
22552,1446.0,1723.0,553.0
22553,1446.0,1723.0,553.0
22554,1446.0,1723.0,553.0
22555,1446.0,1723.0,553.0
22556,1446.0,1723.0,553.0
22557,1446.0,991.0,553.0
22558,1446.0,991.0,553.0
22559,1446.0,2110.0,553.0
22560,1446.0,2110.0,553.0
22561,1446.0,2110.0,553.0
22562,1446.0,2110.0,553.0
22563,1.0,2110.0,553.0
22564,1446.0,844.0,553.0
22565,1878.0,844.0,553.0
22566,1878.0,844.0,553.0
22567,750.0,844.0,553.0
22568,750.0,844.0,553.0
22569,750.0,1696.0,553.0
22570,1.0,1696.0,553.0
22571,750148.0,1696.0,553.0
22572,926.0,1696.0,553.0
22573,1238.0,1696.0,553.0
22574,1238.0,1696.0,553.0
22575,1171.0,1696.0,553.0
22576,1171.0,1696.0,553.0
22577,888.0,522.0,553.0
22578,888.0,522.0,553.0
22579,888.0,522.0,553.0
22580,1263.0,522.0,553.0
22581,1263.0,522.0,553.0
22582,1263.0,522.0,553.0
22583,1263.0,522.0,553.0
22584,1263.0,522.0,553.0
22585,1263.0,522.0,553.0
22586,1263.0,522.0,553.0
22587,1263.0,3306.0,553.0
22588,1751.0,3306.0,553.0
22589,1751.0,3306.0,553.0
22590,1751.0,3306.0,553.0
22591,1751.0,3306.0,198.0
22592,1751.0,3306.0,198.0
22593,1751.0,3306.0,198.0
22594,1751.0,3306.0,198.0
22595,1751.0,3306.0,498.0
22596,1751.0,3306.0,498.0
22597,1751.0,3306.0,498.0
22598,1751.0,3306.0,498.0
22599,1751.0,3306.0,498.0
22600,1751.0,3306.0,498.0
22601,1751.0,3306.0,498.0
22602,1751.0,3306.0,446.0
22603,1751751.0,3306.0,446.0
22604,11751.0,3306.0,446.0
22605,1751.0,3306.0,506.0
22606,1751.0,3306.0,608.0
22607,1751.0,1968.0,608.0
22608,1751.0,2063.0,608.0
22609,1751.0,969.0,608.0
22610,1751.0,969.0,608.0
22611,1751.0,969.0,608.0
22612,1751.0,969.0,608.0
22613,1751.0,969.0,322.0
22614,1751.0,969.0,322.0
22615,1751.0,969.0,447.0
22616,1751.0,969.0,447.0
22617,1751.0,969.0,447.0
22618,1884.0,969.0,447.0
22619,1884.0,969.0,447.0
22620,1884.0,969.0,447.0
22621,1884.0,969.0,447.0
22622,1884.0,969.0,447.0
22623,1884.0,969.0,447.0
22624,1884.0,969.0,447.0
22625,1884.0,969.0,447.0
22626,1884.0,969.0,366.0
22627,1884.0,969.0,366.0
22628,1884.0,969.0,366.0
22629,1884.0,969.0,366.0
22630,1884.0,969.0,366.0
22631,1884.0,969.0,366.0
22632,1884.0,969.0,366.0
22633,1884.0,969.0,366.0
22634,1884.0,2137.0,366.0
22635,1884.0,2137.0,366.0
22636,1796.0,2137.0,366.0
22637,1796.0,2137.0,366.0
22638,806.0,1981.0,366.0
22639,806.0,1981.0,366.0
22640,806.0,1981.0,438.0
22641,806.0,1981.0,438.0
22642,806.0,1981.0,438.0
22643,806.0,1981.0,438.0
22644,806.0,1981.0,432.0
22645,806.0,1325.0,432.0
22646,806.0,1156.0,432.0
22647,806.0,1156.0,432.0
22648,1782.0,1156.0,432.0
22649,1782.0,1858.0,432.0
22650,1782.0,1858.0,432.0
22651,1782.0,1858.0,432.0
22652,1782.0,1858.0,432.0
22653,1782.0,2086.0,432.0
22654,1782.0,1407.0,432.0
22655,1782.0,1407.0,622.0
22656,1782.0,849.0,622.0
22657,1782.0,849.0,622.0
22658,1782.0,849.0,622.0
22659,1782.0,1977.0,622.0
22660,1782.0,1977.0,622.0
24489,230.0,40.0,247.0
24490,307.0,40.0,247.0
24491,307.0,40.0,247.0
24492,104.0,40.0,247.0
24493,147.0,40.0,247.0
24494,147.0,40.0,176.0
24495,147.0,45.0,176.0
24496,147.0,45.0,176.0
24497,147.0,45.0,176.0
24498,295.0,45.0,176.0
24499,295.0,45.0,176.0
24500,295.0,45.0,231.0
24501,307.0,45.0,231.0
24502,150.0,45.0,231.0
24503,194.0,45.0,299.0
24504,194.0,45.0,299.0
24505,194.0,45.0,299.0
24506,194.0,45.0,288.0
24507,194.0,45.0,288.0
24508,194.0,45.0,251.0
24509,195.0,45.0,251.0
24510,317.0,45.0,251.0
24511,285.0,45.0,251.0
24512,285.0,45.0,251.0
24513,167.0,45.0,251.0
24514,167.0,45.0,251.0
24515,167.0,45.0,251.0
24516,92.0,45.0,251.0
24517,92.0,45.0,249.0
24518,92.0,53.0,249.0
24519,92.0,53.0,249.0
24520,92.0,53.0,249.0
24521,88.0,53.0,249.0
24522,88.0,64.0,249.0
24523,88.0,64.0,249.0
24524,88.0,64.0,249.0
24525,188.0,64.0,249.0
24526,211.0,64.0,249.0
24527,211.0,64.0,249.0
24528,211.0,64.0,249.0
24529,211.0,64.0,249.0
24530,211.0,45.0,249.0
24531,211.0,45.0,220.0
24532,211.0,45.0,220.0
24533,253.0,45.0,220.0
24534,325.0,45.0,220.0
24535,325.0,45.0,220.0
24536,325.0,45.0,220.0
24537,180.0,45.0,220.0
24538,180.0,40.0,220.0
24539,180.0,40.0,220.0
24540,113.0,40.0,220.0
24541,113.0,40.0,220.0
24542,95.0,40.0,220.0
24543,95.0,40.0,220.0
24544,95.0,40.0,220.0
24545,95.0,40.0,220.0
24546,95.0,40.0,220.0
24547,95.0,40.0,220.0
24548,177.0,71.0,167.0
24549,196.0,71.0,167.0
24550,196.0,57.0,167.0
24551,128.0,57.0,167.0
24552,128.0,57.0,167.0
24553,128.0,57.0,167.0
24554,128.0,59.0,167.0
24555,128.0,55.0,167.0
24556,128.0,55.0,167.0
24557,128.0,66.0,167.0
24558,128.0,66.0,167.0
24559,128.0,66.0,167.0
24560,128.0,66.0,167.0
24561,294.0,66.0,233.0
24562,268.0,66.0,233.0
24563,268.0,66.0,233.0
24564,268.0,66.0,233.0
24565,440.0,66.0,233.0
24566,440.0,66.0,185.0
24567,440.0,66.0,275.0
24568,440.0,66.0,185.0
24569,440.0,60.0,131.0
24570,440.0,60.0,277.0
24571,440.0,60.0,251.0
24572,440.0,60.0,103.0
24573,440.0,60.0,103.0
24574,440.0,60.0,215.0
24575,440.0,60.0,215.0
24576,440.0,60.0,215.0
24577,440.0,60.0,245.0
24578,157.0,60.0,245.0
24579,157.0,60.0,252.0
24580,157.0,60.0,211.0
24581,157.0,60.0,211.0
24582,157.0,60.0,175.0
24583,157.0,38.0,233.0
24584,157.0,48.0,233.0
24585,157.0,78.0,233.0
24586,157.0,78.0,233.0
24587,157.0,78.0,233.0
24588,157.0,80.0,233.0
24589,157.0,80.0,233.0
24590,157.0,80.0,233.0
24591,157.0,80.0,233.0
24592,157.0,70.0,132.0
24593,157.0,70.0,132.0
24594,157.0,70.0,132.0
24595,157.0,70.0,132.0
24596,157.0,70.0,313.0
24597,157.0,70.0,255.0
24598,157.0,70.0,255.0
24599,105.0,70.0,255.0
24600,105.0,70.0,255.0
24601,105.0,51.0,255.0
24602,105.0,51.0,255.0
24603,105.0,51.0,255.0
24604,105.0,107.0,255.0
24605,105.0,107.0,255.0
24606,105.0,64.0,255.0
24607,105.0,64.0,255.0
24608,105.0,64.0,255.0
24609,105.0,64.0,255.0
24610,105.0,64.0,255.0
24611,105.0,64.0,255.0
24612,105.0,64.0,255.0
24613,345.0,64.0,255.0
24614,345.0,64.0,229.0
24615,345.0,64.0,129.0
24616,314.0,64.0,129.0
24617,314.0,64.0,129.0
24618,314.0,64.0,129.0
24619,314.0,64.0,129.0
24620,314.0,64.0,358.0
24621,314.0,64.0,358.0
24622,314.0,64.0,358.0
24623,314.0,64.0,358.0
24624,314.0,64.0,210.0
24625,314.0,88.0,210.0
24626,314.0,88.0,313.0
24627,314.0,88.0,313.0
24628,314.0,88.0,314.0
24629,314.0,88.0,328.0
24630,314.0,88.0,328.0
24631,314.0,88.0,328.0
24632,314.0,88.0,253.0
24633,314.0,88.0,253.0
24634,178.0,88.0,253.0
24635,178.0,88.0,194.0
24636,178.0,88.0,286.0
24637,178.0,88.0,286.0
24638,178.0,88.0,286.0
24639,178.0,49.0,286.0
24640,178.0,49.0,286.0
26470,321.0,96.0,319.0
26471,321.0,96.0,188.0
26472,321.0,96.0,188.0
26473,321.0,83.0,363.0
26474,321.0,83.0,363.0
26475,321.0,83.0,235.0
26476,321.0,83.0,249.0
26477,321.0,83.0,299.0
26478,321.0,83.0,299.0
26479,301.0,49.0,299.0
26480,301.0,49.0,299.0
26481,145.0,49.0,299.0
26482,249.0,49.0,299.0
26483,249.0,49.0,299.0
26484,249.0,43.0,299.0
26485,158.0,43.0,299.0
26486,174.0,43.0,299.0
26487,221.0,43.0,299.0
26488,221.0,43.0,299.0
26489,221.0,43.0,130.0
26490,221.0,43.0,178.0
26491,221.0,71.0,159.0
26492,221.0,48.0,208.0
26493,99.0,48.0,208.0
26494,246.0,48.0,208.0
26495,246.0,48.0,208.0
26496,246.0,58.0,208.0
26497,246.0,58.0,208.0
26498,235.0,58.0,208.0
26499,235.0,58.0,208.0
26500,235.0,58.0,150.0
26501,239.0,58.0,150.0
26502,239.0,58.0,150.0
26503,239.0,58.0,150.0
26504,210.0,58.0,150.0
26505,210.0,58.0,150.0
26506,210.0,58.0,176.0
26507,210.0,58.0,176.0
26508,210.0,58.0,176.0
26509,210.0,58.0,176.0
26510,210.0,83.0,176.0
26511,210.0,83.0,176.0
26512,210.0,83.0,175.0
26513,210.0,78.0,175.0
26514,210.0,78.0,175.0
26515,104.0,78.0,175.0
26516,104.0,51.0,332.0
26517,104.0,77.0,332.0
26518,104.0,77.0,332.0
26519,104.0,77.0,332.0
26520,104.0,77.0,332.0
26521,104.0,77.0,332.0
26522,104.0,77.0,332.0
26523,104.0,77.0,332.0
26524,269.0,77.0,255.0
26525,269.0,77.0,235.0
26526,269.0,77.0,235.0
26527,269.0,74.0,235.0
26528,269.0,74.0,235.0
26529,269.0,74.0,235.0
26530,269.0,82.0,235.0
26531,269.0,82.0,235.0
26532,269.0,64.0,235.0
26533,269.0,64.0,235.0
26534,269.0,64.0,235.0
26535,269.0,64.0,235.0
26536,269.0,64.0,235.0
26537,211.0,64.0,235.0
26538,211.0,64.0,235.0
26539,211.0,38.0,235.0
26540,211.0,38.0,372.0
26541,211.0,38.0,372.0
26542,211.0,38.0,372.0
26543,211.0,38.0,372.0
26544,211.0,38.0,268.0
26545,211.0,38.0,268.0
26546,211.0,38.0,104.0
26547,342.0,60.0,104.0
26548,342.0,60.0,104.0
26549,342.0,60.0,104.0
26550,342.0,60.0,413.0
26551,342.0,60.0,413.0
26552,342.0,60.0,413.0
26553,342.0,59.0,413.0
26554,121.0,81.0,413.0
26555,121.0,81.0,413.0
26556,260.0,81.0,413.0
26557,78.0,81.0,413.0
26558,78.0,81.0,413.0
26559,137.0,81.0,255.0
26560,328.0,81.0,255.0
26561,249.0,81.0,100.0
26562,263.0,81.0,100.0
26563,177.0,81.0,100.0
26564,177.0,81.0,100.0
26565,177.0,81.0,100.0
26566,177.0,81.0,100.0
26567,177.0,81.0,100.0
26568,177.0,81.0,100.0
26569,177.0,81.0,100.0
26570,177.0,81.0,100.0
26571,177.0,81.0,100.0
26572,177.0,34.0,100.0
26573,177.0,34.0,100.0
26574,177.0,34.0,293.0
26575,177.0,34.0,293.0
26576,177.0,34.0,293.0
26577,177.0,34.0,130.0
26578,133.0,53.0,130.0
26579,133.0,53.0,130.0
26580,133.0,53.0,130.0
26581,133.0,31.0,130.0
26582,239.0,31.0,130.0
26583,239.0,75.0,130.0
26584,239.0,38.0,130.0
26585,239.0,38.0,130.0
26586,111.0,38.0,130.0
26587,111.0,56.0,130.0
26588,111.0,90.0,130.0
26589,111.0,90.0,130.0
26590,111.0,35.0,130.0
26591,111.0,35.0,130.0
26592,111.0,53.0,130.0
26593,111.0,53.0,130.0
26594,111.0,53.0,130.0
26595,111.0,53.0,130.0
26596,111.0,53.0,130.0
26597,111.0,53.0,130.0
26598,111.0,98.0,130.0
26599,111.0,98.0,130.0
26600,111.0,98.0,149.0
26601,111.0,98.0,149.0
26602,111.0,100.0,149.0
26603,111.0,47.0,149.0
26604,111.0,47.0,149.0
26605,111.0,88.0,149.0
26606,111.0,88.0,149.0
26607,111.0,63.0,149.0
26608,111.0,78.0,149.0
26609,111.0,66.0,149.0
26610,111.0,106.0,149.0
26611,111.0,106.0,149.0
26612,111.0,67.0,149.0
26613,111.0,67.0,214.0
26614,111.0,67.0,214.0
26615,111.0,113.0,214.0
26616,111.0,113.0,214.0
26617,111.0,113.0,214.0
26618,111.0,79.0,214.0
26619,137.0,79.0,214.0
26620,137.0,88.0,214.0
26621,137.0,88.0,214.0
29188,1267.0,3662.0,1184.0
29189,1267.0,3662.0,1184.0
29190,1267.0,3662.0,456.0
29191,1267.0,3662.0,456.0
29192,1267.0,3662.0,456.0
29193,1267.0,3662.0,456.0
29194,803.0,3662.0,456.0
29195,803.0,3662.0,456.0
29196,803.0,86.0,456.0
29197,803.0,86.0,456.0
29198,803.0,2108.0,456.0
29199,803.0,2108.0,456.0
29200,803.0,2108.0,456.0
29201,803.0,2108.0,456.0
29202,803.0,2108.0,456.0
29203,803.0,2108.0,456.0
29204,803.0,2108.0,456.0
29205,803.0,2108.0,421.0
29206,803.0,2108.0,421.0
29207,803.0,1838.0,421.0
29208,803.0,1553.0,421.0
29209,1387.0,1553.0,421.0
29210,2052.0,1553.0,1045.0
29211,2052.0,1553.0,1045.0
29212,2052.0,1180.0,1045.0
29213,2052.0,1180.0,1045.0
29214,2052.0,1180.0,1021.0
29215,2052.0,1180.0,1021.0
29216,2052.0,1180.0,590.0
29217,2052.0,1180.0,590.0
29218,2052.0,1180.0,964.0
29219,2052.0,1180.0,817.0
29220,2052.0,1180.0,817.0
29221,2052.0,1180.0,817.0
29222,2052.0,1180.0,752.0
29223,2052.0,1180.0,752.0
29224,2052.0,1180.0,752.0
29225,2052.0,1180.0,1095.0
29226,2052.0,1180.0,1251.0
29227,2052.0,1180.0,1251.0
29228,2052.0,1180.0,1085.0
29229,2052.0,1180.0,433.0
29230,2052.0,1180.0,433.0
29231,2052.0,1180.0,433.0
29232,2052.0,1180.0,1438.0
29233,2052.0,1180.0,300.0
29234,2052.0,1180.0,300.0
29235,2052.0,1180.0,300.0
29236,2052.0,1180.0,300.0
29237,2052.0,1180.0,300.0
29238,773.0,1180.0,300.0
29239,773.0,1180.0,300.0
29240,773.0,1180.0,300.0
29241,773.0,1180.0,300.0
29242,773.0,1180.0,300.0
29243,773.0,1180.0,300.0
29244,1004.0,1180.0,300.0
29245,1004.0,1180.0,300.0
29246,1004.0,1180.0,734.0
29247,1004.0,1180.0,734.0
29248,1004.0,1180.0,734.0
29249,1004.0,1180.0,734.0
29250,1004.0,1180.0,734.0
29251,1004.0,1180.0,734.0
29252,1004.0,1180.0,993.0
29253,1004.0,1180.0,993.0
29254,1004.0,1180.0,905.0
29255,1004.0,1180.0,905.0
29256,1004.0,1180.0,905.0
29257,1004.0,1180.0,1155.0
29258,1004.0,1180.0,1155.0
29259,1004.0,1180.0,1155.0
29260,1004.0,1180.0,1155.0
29261,1004.0,1180.0,1155.0
29262,1004.0,1180.0,1155.0
29263,1004.0,1180.0,1155.0
29264,1004.0,1180.0,743.0
29265,1004.0,1180.0,791.0
29266,1004.0,1180.0,791.0
29267,1004.0,1180.0,791.0
29268,1004.0,1180.0,791.0
29269,1004.0,1180.0,557.0
29270,1004.0,1180.0,557.0
29271,1004.0,1180.0,557.0
29272,1004.0,1180.0,1062.0
29273,1004.0,1180.0,1062.0
29274,1004.0,1180.0,1319.0
29275,1004.0,1180.0,1319.0
29276,1004.0,1180.0,1319.0
29277,1004.0,1180.0,1319.0
29278,824.0,1180.0,1319.0
29279,824.0,1180.0,1319.0
29280,824.0,1180.0,1319.0
29281,851.0,1180.0,1319.0
29282,851.0,1180.0,1003.0
29283,1589.0,1180.0,1003.0
29284,1589.0,1180.0,1003.0
29285,1589.0,1180.0,1003.0
29286,1589.0,1180.0,1003.0
29287,1589.0,1180.0,982.0
31065,202.0,683.0,610.0
31066,202.0,683.0,610.0
31067,202.0,683.0,610.0
31068,202.0,683.0,610.0
31069,202.0,683.0,610.0
31070,202.0,683.0,610.0
31071,202.0,683.0,610.0
31072,202.0,683.0,610.0
31073,202.0,1253.0,610.0
31074,202.0,789.0,610.0
31075,202.0,789.0,610.0
31076,202.0,982.0,610.0
31077,202.0,982.0,610.0
31078,202.0,982.0,610.0
31079,202.0,982.0,610.0
31080,202.0,982.0,610.0
31081,202.0,982.0,610.0
31082,202.0,1020.0,610.0
31083,202.0,1020.0,610.0
31084,202.0,973.0,610.0
31085,202.0,1128.0,610.0
31086,202.0,1128.0,610.0
31087,202.0,1128.0,610.0
31088,202.0,1128.0,610.0
31089,202.0,593.0,610.0
31090,202.0,593.0,610.0
31091,202.0,593.0,610.0
31092,202.0,593.0,610.0
31093,202.0,593.0,610.0
31094,202.0,911.0,610.0
31095,202.0,720.0,588.0
31096,217.0,720.0,588.0
31097,217.0,720.0,588.0
31098,217.0,843.0,588.0
31099,217.0,843.0,588.0
31100,217.0,1269.0,588.0
31101,217.0,1269.0,588.0
31102,217.0,1269.0,588.0
31103,217.0,1269.0,588.0
31104,217.0,785.0,588.0
31105,217.0,785.0,588.0
31106,217.0,785.0,588.0
31107,217.0,785.0,588.0
31108,217.0,785.0,588.0
31109,217.0,623.0,588.0
31110,217.0,623.0,588.0
31111,217.0,856.0,588.0
31112,217.0,1274.0,588.0
31113,217.0,1274.0,588.0
31114,217.0,496.0,588.0
31115,170.0,496.0,588.0
31116,170.0,496.0,588.0
31117,170.0,496.0,588.0
31118,170.0,496.0,588.0
31119,170.0,618.0,588.0
31120,170.0,618.0,588.0
31121,170.0,977.0,588.0
31122,170.0,977.0,588.0
31123,170.0,977.0,588.0
31124,170.0,977.0,588.0
31125,170.0,977.0,588.0
31126,170.0,725.0,588.0
31127,170.0,725.0,588.0
31128,170.0,666.0,588.0
31129,170.0,666.0,588.0
31130,170.0,666.0,588.0
31131,170.0,1184.0,588.0
31132,170.0,1184.0,588.0
31133,170.0,332.0,588.0
31134,170.0,332.0,588.0
31135,478.0,727.0,588.0
31136,478.0,727.0,588.0
31137,478.0,727.0,588.0
31138,478.0,727.0,588.0
31139,478.0,727.0,588.0
31140,478.0,727.0,588.0
31141,478.0,727.0,588.0
31142,478.0,727.0,588.0
31143,478.0,727.0,588.0
31144,174.0,727.0,588.0
31145,479.0,727.0,588.0
31146,166.0,727.0,588.0
31147,166.0,727.0,588.0
31148,166.0,2727.0,588.0
31149,166.0,1242.0,588.0
31150,166.0,537.0,588.0
31151,166.0,750.0,588.0
31152,166.0,995.0,588.0
31153,697.0,995.0,588.0
31154,697.0,1696.0,588.0
31155,697.0,1696.0,588.0
31156,697.0,540.0,588.0
31157,697.0,540.0,588.0
31158,697.0,540.0,588.0
31159,697.0,1579.0,588.0
31160,697.0,1579.0,588.0
31161,697.0,3042.0,588.0
31162,697.0,3042.0,588.0
31163,697.0,3042.0,588.0
31164,697.0,3042.0,588.0
31165,697.0,3042.0,588.0
31166,697.0,3042.0,588.0
31167,697.0,3042.0,588.0
31168,697.0,3042.0,588.0
31169,697.0,3042.0,588.0
31170,697.0,3042.0,588.0
31171,697.0,3042.0,588.0
31172,697.0,3042.0,588.0
31173,697.0,3042.0,588.0
31174,697.0,3042.0,588.0
31175,697.0,1082.0,588.0
31176,697.0,1082.0,588.0
31177,697.0,1082.0,588.0
31178,697.0,1082.0,588.0
31179,697.0,1082.0,588.0
31180,697.0,1082.0,588.0
31181,105.0,1082.0,588.0
31182,105.0,1082.0,588.0
31183,105.0,1082.0,588.0
31184,105.0,1082.0,588.0
31185,105.0,1082.0,588.0
31186,105.0,1082.0,588.0
31187,105.0,2222.0,588.0
31188,105.0,2222.0,588.0
31189,105.0,2222.0,588.0
31190,203.0,2222.0,588.0
31191,203.0,2222.0,588.0
31192,203.0,2222.0,588.0
31193,203.0,2222.0,588.0
31194,203.0,2222.0,588.0
31195,389.0,2222.0,588.0
31196,389.0,2222.0,588.0
31197,389.0,615.0,588.0
31198,389.0,623.0,588.0
31199,389.0,1012.0,588.0
31200,389.0,1455.0,588.0
31201,389.0,1455.0,588.0
31202,322.0,1455.0,588.0
31203,322.0,1455.0,588.0
31204,322.0,1455.0,588.0
31205,322.0,1455.0,588.0
31206,322.0,1455.0,992.0
31207,322.0,1455.0,992.0
31208,322.0,1455.0,992.0
31209,322.0,1455.0,992.0
31210,322.0,1455.0,992.0
31211,322.0,1455.0,992.0
31212,322.0,1455.0,992.0
31213,322.0,1455.0,992.0
31214,322.0,1455.0,992.0
31215,322.0,1455.0,1236.0
31216,322.0,1455.0,1236.0
32167,1148.0,311.0,499.0
32168,1148.0,311.0,499.0
32169,1062.0,311.0,499.0
32170,1062.0,311.0,499.0
32171,1559.0,311.0,499.0
32172,1559.0,311.0,499.0
32173,1042.0,237.0,499.0
32174,1042.0,237.0,499.0
32175,1042.0,237.0,499.0
32176,1042.0,237.0,840.0
32177,1042.0,237.0,840.0
32178,1042.0,237.0,840.0
32179,501.0,237.0,840.0
32180,416.0,385.0,840.0
32181,596.0,385.0,840.0
32182,475.0,385.0,840.0
32183,830.0,385.0,840.0
32184,733.0,725.0,840.0
32185,480.0,725.0,840.0
32186,366.0,725.0,840.0
32187,366.0,725.0,840.0
32188,581.0,725.0,840.0
32189,808.0,725.0,840.0
32190,808.0,725.0,840.0
32191,808.0,377.0,840.0
33751,197.0,371.0,493.0
33752,5.0,513.0,493.0
33753,26265.0,513.0,493.0
33754,269.0,513.0,493.0
33755,269.0,513.0,493.0
33756,269.0,513.0,493.0
33757,269.0,754.0,493.0
33758,269.0,494.0,493.0
33759,269.0,494.0,493.0
33760,269.0,494.0,493.0
33761,269.0,494.0,493.0
33762,269.0,935.0,493.0
33763,269.0,935.0,493.0
33764,269.0,935.0,493.0
33765,269.0,935.0,493.0
33766,269.0,935.0,493.0
33767,269.0,935.0,284.0
33768,262.0,935.0,284.0
33769,262.0,935.0,284.0
33770,262.0,935.0,284.0
33771,262.0,935.0,284.0
33772,262.0,605.0,284.0
33773,262.0,802.0,284.0
33774,262.0,233.0,284.0
33775,262.0,233.0,284.0
33776,76.0,233.0,284.0
33777,76.0,670.0,284.0
33778,76.0,835.0,284.0
33779,76.0,760.0,284.0
33780,76.0,443.0,284.0
33781,76.0,443.0,284.0
33782,76.0,443.0,284.0
33783,76.0,443.0,284.0
33784,151.0,443.0,284.0
33785,151.0,443.0,284.0
33786,151.0,443.0,284.0
33787,151.0,443.0,284.0
33788,151.0,443.0,284.0
33789,151.0,443.0,284.0
33790,151.0,443.0,284.0
33791,151.0,443.0,284.0
33792,151.0,443.0,284.0
33793,151.0,443.0,284.0
33794,151.0,443.0,284.0
33795,151.0,443.0,284.0
33796,151.0,443.0,284.0
33797,151.0,443.0,284.0
33798,151.0,443.0,284.0
33799,151.0,443.0,284.0
33800,151.0,443.0,284.0
33801,155.0,443.0,284.0
33802,155.0,443.0,284.0
33803,117.0,443.0,284.0
33804,51.0,443.0,28400.0
33805,117.0,443.0,284.0
33806,117.0,443.0,284.0
33807,117.0,443.0,284.0
33808,117.0,443.0,620.0
33809,117.0,443.0,620.0
33810,117.0,443.0,620.0
33811,117.0,446.0,620.0
33812,117.0,446.0,620.0
33813,166.0,446.0,620.0
33814,166.0,446.0,620.0
33815,68.0,446.0,620.0
33816,68.0,446.0,620.0
33817,68.0,446.0,620.0
33818,141.0,446.0,620.0
33819,141.0,446.0,620.0
33820,103.0,446.0,620.0
33821,103.0,446.0,620.0
33822,177.0,446.0,620.0
33823,200.0,446.0,620.0
33824,83.0,446.0,620.0
33825,195.0,446.0,620.0
33826,106.0,446.0,620.0
33827,108.0,446.0,620.0
33828,108.0,446.0,302.0
33829,116.0,446.0,302.0
33830,174.0,446.0,302.0
33831,174.0,446.0,302.0
33832,174.0,446.0,302.0
33833,174.0,446.0,302.0
33834,203.0,446.0,302.0
33835,203.0,446.0,302.0
33836,148.0,222.0,302.0
33837,148.0,222.0,302.0
33838,148.0,222.0,302.0
33839,148.0,222.0,302.0
33840,148.0,222.0,365.0
33841,148.0,222.0,365.0
33842,253.0,222.0,365.0
33843,253.0,222.0,365.0
33844,253.0,222.0,365.0
33845,253.0,222.0,365.0
33846,253.0,222.0,365.0
33847,253.0,222.0,365.0
33848,259.0,222.0,365.0
33849,259.0,222.0,365.0
33850,259.0,222.0,365.0
33851,259.0,222.0,365.0
33852,259.0,222.0,365.0
33853,198.0,222.0,365.0
33854,198.0,222.0,365.0
33855,198.0,222.0,365.0
33856,198.0,222.0,365.0
33857,239.0,222.0,365.0
33858,239.0,494.0,365.0
33859,220.0,516.0,365.0
33860,2220.0,516.0,365.0
33861,220.0,516.0,365.0
33862,220.0,516.0,365.0
33863,220.0,516.0,365.0
33864,220.0,516.0,365.0
33865,220.0,516.0,365.0
33866,220.0,516.0,365.0
33867,263.0,516.0,365.0
33868,263.0,516.0,365.0
33869,263.0,402.0,365.0
33870,129.0,402.0,365.0
33871,129.0,325.0,365.0
33872,129.0,325.0,365.0
33873,207.0,325.0,365.0
33874,216.0,325.0,365.0
33875,216.0,325.0,365.0
33876,179.0,325.0,365.0
33877,177.0,325.0,365.0
33878,177.0,325.0,365.0
33879,177.0,325.0,365.0
33880,177.0,325.0,365.0
33881,177.0,325.0,365.0
33882,177.0,325.0,365.0
35555,329.0,311.0,292.0
35556,329.0,311.0,292.0
35557,329.0,214.0,292.0
35558,329.0,214.0,292.0
35559,361.0,214.0,292.0
35560,361.0,214.0,292.0
35561,361.0,214.0,292.0
35562,477.0,214.0,292.0
35563,334.0,214.0,292.0
35564,34.0,214.0,61.0
35565,434.0,214.0,61.0
35566,33334.0,214.0,61.0
35567,334.0,214.0,128.0
35568,334.0,214.0,128.0
35569,334334.0,214.0,128.0
35570,334.0,214.0,128.0
35571,334.0,254.0,128.0
35572,334.0,266.0,128.0
35573,334.0,266.0,128.0
35574,334.0,242.0,128.0
35575,334.0,242.0,128.0
35576,334.0,242.0,128.0
35577,334.0,117.0,128.0
35578,334.0,117.0,128.0
35579,334.0,117.0,128.0
35580,334.0,117.0,128.0
35581,276.0,117.0,128.0
35582,276.0,117.0,53.0
35583,276.0,117.0,110.0
35584,276.0,117.0,110.0
35585,276.0,117.0,110.0
35586,276.0,117.0,110.0
35587,276.0,117.0,110.0
35588,276.0,117.0,110.0
35589,276.0,117.0,107.0
35590,276.0,117.0,270.0
35591,276.0,117.0,270.0
35592,276.0,259.0,170.0
35593,276.0,259.0,71.0
35594,276.0,320.0,71.0
35595,276.0,320.0,71.0
35596,553.0,320.0,71.0
35597,267.0,320.0,71.0
35598,533.0,320.0,71.0
35599,533.0,320.0,71.0
35600,533.0,320.0,71.0
35601,533.0,320.0,71.0
35602,342.0,320.0,71.0
35603,342.0,320.0,71.0
35604,274.0,320.0,71.0
35605,274.0,320.0,71.0
35606,263.0,320.0,118.0
35607,263.0,204.0,118.0
35608,263.0,204.0,118.0
35609,263.0,314.0,118.0
35610,263.0,314.0,118.0
35611,263.0,314.0,118.0
35612,263.0,314.0,118.0
35613,263.0,314.0,118.0
35614,263.0,314.0,118.0
35615,263.0,314.0,118.0
35616,156.0,314.0,118.0
35617,270.0,314.0,118.0
35618,270.0,314.0,118.0
35619,406.0,314.0,118.0
35620,406.0,314.0,118.0
35621,406.0,314.0,118.0
35622,406.0,314.0,118.0
35623,406.0,314.0,198.0
35624,406.0,314.0,198.0
35625,406.0,314.0,237.0
35626,406.0,314.0,237.0
35627,406.0,314.0,286.0
35628,406.0,314.0,286.0
35629,406.0,314.0,220.0
35630,406.0,314.0,220.0
35631,406.0,314.0,220.0
35632,406.0,140.0,220.0
35633,406.0,429.0,220.0
35634,406.0,429.0,220.0
35635,520.0,490.0,220.0
35636,520.0,490.0,220.0
35637,298.0,490.0,220.0
35638,298.0,490.0,220.0
35639,298.0,436.0,220.0
35640,298.0,436.0,220.0
35641,298.0,436.0,220.0
35642,298.0,436.0,220.0
35643,298.0,436.0,220.0
35644,298.0,436.0,220.0
35645,298.0,436.0,220.0
35646,298.0,436.0,220.0
35647,298.0,436.0,370.0
35648,298.0,436.0,370.0
35649,298.0,436.0,370.0
35650,298.0,618.0,100.0
35651,298.0,618.0,302.0
35652,298.0,618.0,302.0
35653,298.0,357.0,302.0
35654,298.0,357.0,374.0
35655,298.0,476.0,374.0
35656,298.0,476.0,374.0
35657,298.0,476.0,127.0
35658,298.0,476.0,127.0
35659,298.0,476.0,148.0
35660,298.0,476.0,148.0
35661,325.0,476.0,148.0
35662,325.0,476.0,148.0
35663,244.0,476.0,148.0
35664,244.0,476.0,148.0
35665,244.0,476.0,148.0
35666,244.0,476.0,148.0
35667,244.0,476.0,325.0
35668,244.0,603.0,325.0
35669,244.0,603.0,325.0
35670,244.0,603.0,119.0
35671,244.0,603.0,119.0
35672,244.0,603.0,119.0
35673,244.0,603.0,119.0
35674,244.0,603.0,119.0
35675,244.0,603.0,119.0
35676,244.0,603.0,142.0
35677,244.0,603.0,103.0
35678,244.0,603.0,238.0
35679,2984.0,603.0,289.0
35680,2444.0,603.0,310.0
35681,244.0,603.0,177.0
35682,244.0,603.0,177.0
35683,244.0,603.0,177.0
35684,244.0,535.0,177.0
35685,244.0,535.0,177.0
35686,244.0,535.0,177.0
37320,628.0,914.0,1462.0
37321,628.0,914.0,1462.0
37322,628.0,914.0,1462.0
37323,628.0,1730.0,1462.0
37324,628.0,1730.0,1462.0
37325,814.0,1730.0,1462.0
37326,814.0,1847.0,1462.0
37327,814.0,1847.0,2510.0
37328,814.0,1847.0,2510.0
37329,814.0,1799.0,2510.0
37330,814.0,1799.0,2510.0
37331,814.0,1799.0,2510.0
37332,814.0,1799.0,2510.0
37333,814.0,1799.0,2510.0
37334,6.0,1799.0,2510.0
37335,1026.0,1799.0,1645.0
37336,1026.0,1799.0,1645.0
37337,1026.0,1799.0,1645.0
37338,1026.0,1540.0,1645.0
37339,1026.0,1540.0,1645.0
37340,1026.0,1540.0,1645.0
37341,1026.0,1540.0,1645.0
37342,1026.0,1540.0,2014.0
37343,1026.0,1540.0,2014.0
37344,1026.0,1540.0,2014.0
37345,1026.0,1540.0,2014.0
37346,1026.0,1540.0,2014.0
37347,1026.0,1540.0,2014.0
37348,1026.0,1540.0,2014.0
37349,1026.0,1540.0,2014.0
37350,1026.0,1540.0,2014.0
37351,1026.0,1540.0,2014.0
37352,389.0,1540.0,2014.0
37353,389.0,1540.0,2014.0
37354,389.0,1540.0,2014.0
37355,389.0,1540.0,2014.0
37356,389.0,1540.0,2014.0
37357,389.0,924.0,2014.0
37358,389.0,924.0,2014.0
37359,389.0,924.0,2014.0
37360,389.0,924.0,2014.0
37361,389.0,924.0,2999.0
37362,389.0,924.0,2999.0
37363,389.0,924.0,2999.0
37364,389.0,924.0,2999.0
37365,389.0,924.0,2999.0
37366,389.0,924.0,2999.0
37367,389.0,924.0,2999.0
37368,389.0,924.0,2999.0
37369,389.0,924.0,2999.0
37370,389.0,924.0,2999.0
37371,389.0,924.0,2999.0
37372,389.0,924.0,2999.0
37373,389.0,924.0,2999.0
37374,389.0,924.0,2999.0
37375,389.0,924.0,2999.0
37376,389.0,924.0,2999.0
37377,389.0,924.0,2999.0
37378,389.0,924.0,2999.0
37379,389.0,924.0,2999.0
37380,389.0,924.0,2999.0
37381,389.0,924.0,2999.0
37382,389.0,924.0,2999.0
37383,389.0,924.0,2999.0
37384,389.0,924.0,2999.0
37385,389.0,924.0,2999.0
37386,389.0,924.0,2999.0
37387,389.0,924.0,2999.0
37388,665.0,924.0,2999.0
37389,665.0,924.0,2999.0
37390,531.0,924.0,2999.0
37391,531.0,924.0,2999.0
37392,348.0,924.0,2999.0
37393,348.0,924.0,2999.0
37394,348.0,924.0,2999.0
37395,348.0,924.0,1112.0
37396,348.0,924.0,1112.0
37397,348.0,924.0,1112.0
37398,348.0,924.0,1112.0
37399,348.0,924.0,1112.0
37400,348.0,924.0,1858.0
37401,348.0,924.0,1858.0
37402,348.0,924.0,1858.0
37403,348.0,924.0,1858.0
37404,380.0,924.0,1782.0
37405,464.0,924.0,1782.0
37406,464.0,924.0,1782.0
37407,464.0,924.0,1782.0
37408,464.0,924.0,1782.0
37409,464.0,924.0,1782.0
37410,464.0,924.0,1782.0
37411,464.0,924.0,1782.0
37412,464.0,924.0,1782.0
37413,464.0,924.0,1782.0
37414,1056.0,924.0,1782.0
37415,1056.0,924.0,1782.0
37416,1056.0,924.0,1782.0
37417,1056.0,924.0,1782.0
37418,1056.0,924.0,1782.0
37419,1056.0,924.0,1782.0
37420,1056.0,924.0,1782.0
37421,1056.0,924.0,1782.0
37422,1056.0,924.0,1782.0
37423,1056.0,924.0,1782.0
37424,513.0,924.0,1782.0
37425,513.0,924.0,1782.0
37426,513.0,924.0,1782.0
37427,825.0,924.0,1782.0
37428,825.0,924.0,1782.0
37429,825.0,924.0,1782.0
37430,825.0,924.0,1782.0
37431,825.0,924.0,1782.0
37432,825.0,924.0,1782.0
37433,825.0,924.0,1782.0
37434,531.0,924.0,1782.0
37435,596.0,924.0,1782.0
37436,596.0,620.0,1782.0
37437,596.0,620.0,1782.0
37438,596.0,620.0,1782.0
37439,596.0,620.0,1782.0
37440,596.0,620.0,1782.0
37441,596.0,620.0,1782.0
37442,389.0,620.0,1782.0
37443,902.0,620.0,1782.0
37444,902.0,620.0,1782.0
37445,902.0,620.0,1782.0
37446,902.0,620.0,1782.0
37447,902.0,620.0,1782.0
37448,565.0,620.0,1782.0
37449,989.0,620.0,1782.0
37450,5.0,620.0,1782.0
37451,989.0,620.0,1782.0
37452,989.0,620.0,2161.0
37453,989.0,620.0,2161.0
37454,989.0,620.0,2161.0
37455,989.0,620.0,2161.0
37456,989.0,620.0,2161.0
37457,989.0,620.0,2161.0
37458,989.0,1007.0,2161.0
37459,989.0,1007.0,2161.0
37460,989.0,1007.0,2161.0
37461,989.0,1007.0,2161.0
37462,989.0,1007.0,2161.0
37463,989.0,1105.0,2161.0
37464,989.0,2038.0,1662.0
37465,989.0,1538.0,1662.0
37466,989.0,1538.0,1662.0
39229,528.0,925.0,1571.0
39230,528.0,925.0,1571.0
39231,528.0,1258.0,1571.0
39232,528.0,1258.0,1571.0
39233,528.0,1443.0,1571.0
39234,528.0,1443.0,1571.0
39235,528.0,1443.0,1571.0
39236,528.0,1443.0,1571.0
39237,528.0,1729.0,1571.0
39238,5528.0,1729.0,1571.0
39239,528.0,1517.0,1571.0
39240,528.0,1517.0,1571.0
39241,528.0,1818.0,1571.0
39242,528.0,1818.0,1571.0
39243,528.0,1818.0,1571.0
39244,528.0,1818.0,1571.0
39245,528.0,1818.0,1571.0
39246,528.0,1818.0,1571.0
39247,528.0,1818.0,1571.0
39248,528.0,1818.0,2518.0
39249,528.0,1818.0,2518.0
39250,528.0,1818.0,1887.0
39251,528.0,1080.0,1887.0
39252,528.0,1080.0,1887.0
39253,528.0,1225.0,1887.0
39254,528.0,1497.0,1887.0
39255,528.0,1497.0,1887.0
39256,528.0,1497.0,1887.0
39257,528.0,1497.0,1887.0
39258,528.0,1497.0,2725.0
39259,528.0,1497.0,2725.0
39260,528.0,1497.0,2725.0
39261,884.0,1497.0,2725.0
39262,884.0,1497.0,2725.0
39263,884.0,1497.0,2725.0
39264,884.0,1497.0,2725.0
39265,884.0,1497.0,2725.0
39266,884.0,1497.0,2725.0
39267,884.0,1497.0,2725.0
39268,884.0,1497.0,2725.0
39269,884.0,960.0,2725.0
39270,884.0,960.0,2725.0
39271,884.0,960.0,2725.0
39272,884.0,960.0,2725.0
39273,480.0,960.0,1309.0
39274,480.0,960.0,1309.0
39275,480.0,960.0,1309.0
39276,480.0,960.0,1309.0
39277,480.0,960.0,1309.0
39278,544.0,960.0,1309.0
39279,544.0,1153.0,1309.0
39280,44.0,1153.0,1309.0
39281,544.0,1153.0,1309.0
39282,544.0,1779.0,1309.0
39283,461.0,1779.0,1309.0
39284,461.0,1779.0,1309.0
39285,461.0,1779.0,1309.0
39286,461.0,1779.0,1309.0
39287,461.0,1779.0,1309.0
39288,461.0,1779.0,1309.0
39289,461.0,1779.0,1309.0
39290,461.0,1700.0,1309.0
39291,356.0,1700.0,1309.0
39292,356.0,1272.0,1309.0
39293,356.0,1272.0,1309.0
39294,1028.0,1272.0,1309.0
39295,1028.0,1272.0,1309.0
39296,1028.0,1272.0,1309.0
39297,101028.0,1272.0,1309.0
39298,1028.0,1525.0,1309.0
39299,1028.0,1525.0,1309.0
39300,1028.0,1525.0,1309.0
39301,1028.0,1525.0,1309.0
39302,1028.0,1525.0,1309.0
39303,1028.0,1525.0,1309.0
39304,1028.0,1525.0,1309.0
39305,1028.0,1525.0,1309.0
39306,1028.0,1525.0,1309.0
39307,1028.0,1525.0,1309.0
39308,1028.0,1525.0,1309.0
39309,1028.0,1525.0,1309.0
39310,1028.0,1525.0,1309.0
39311,1028.0,1525.0,1949.0
39312,1028.0,1762.0,1949.0
39313,1028.0,1762.0,1949.0
39314,1028.0,1762.0,1949.0
39315,10288.0,1762.0,2175.0
39316,1028.0,1762.0,2175.0
39317,1028.0,1762.0,2175.0
39318,1028.0,1762.0,2175.0
39319,1028.0,1762.0,3385.0
39320,1028.0,1762.0,2511.0
39321,1028.0,1762.0,2511.0
39322,1028.0,1762.0,2511.0
39323,1028.0,1762.0,2511.0
39324,1028.0,1762.0,1844.0
39325,1028.0,1762.0,1844.0
39326,1028.0,1762.0,1844.0
39327,1028.0,1609.0,1844.0
39328,1028.0,1609.0,1844.0
39329,1028.0,1688.0,1844.0
39330,1028.0,1688.0,1844.0
39331,1028.0,1688.0,1844.0
39332,744.0,1688.0,1844.0
39333,744.0,1060.0,2311.0
39334,744.0,1081.0,2311.0
39335,871.0,1232.0,2311.0
39336,871.0,1232.0,2311.0
39337,871.0,1232.0,2311.0
39338,871.0,1871.0,2311.0
39339,871.0,1871.0,2311.0
39340,871.0,1871.0,2311.0
39341,871.0,1292.0,2311.0
39342,871.0,1234.0,2311.0
39343,871.0,1877.0,2311.0
39344,871.0,1301.0,2311.0
39345,871.0,1301.0,2311.0
39346,439.0,1541.0,2311.0
39347,439.0,1541.0,2311.0
39348,439.0,1763.0,2311.0
39349,439.0,1763.0,2311.0
39350,439.0,1095.0,2311.0
39351,439.0,1095.0,2311.0
39352,439.0,1095.0,2311.0
39353,439.0,1095.0,2311.0
39354,439.0,1095.0,2311.0
39355,439.0,1095.0,2311.0
39356,609.0,1095.0,2311.0
39357,609.0,1190.0,2311.0
39358,609.0,1190.0,2311.0
39359,609.0,1190.0,2311.0
39360,609.0,1190.0,2311.0
39361,609.0,1190.0,2311.0
39362,609.0,1190.0,2311.0
39363,609.0,1190.0,2311.0
40765,883.0,621.0,170.0
40766,883.0,621.0,170.0
40767,883.0,621.0,101.0
40768,883.0,621.0,101.0
40769,756.0,621.0,101.0
40770,756.0,621.0,101.0
40771,756.0,621.0,101.0
40772,562.0,621.0,101.0
40773,562.0,621.0,101.0
40774,562.0,621.0,101.0
40775,562.0,621.0,101.0
40776,562.0,621.0,101.0
40777,562.0,621.0,101.0
40778,562.0,621.0,101.0
40779,562.0,621.0,101.0
40780,562.0,621.0,49.0
40781,562.0,621.0,49.0
40782,562.0,621.0,49.0
40783,562.0,621.0,49.0
40784,562.0,621.0,49.0
40785,562.0,621.0,49.0
40786,562.0,621.0,49.0
40787,844.0,621.0,49.0
40788,844.0,621.0,49.0
40789,884.0,621.0,49.0
40790,884.0,621.0,49.0
40791,1129.0,621.0,49.0
40792,1129.0,621.0,49.0
40793,1129.0,621.0,49.0
40794,1129.0,621.0,49.0
40795,1129.0,621.0,49.0
40796,1129.0,621.0,49.0
40797,1129.0,621.0,49.0
40798,760.0,621.0,49.0
40799,760.0,621.0,49.0
40800,760.0,621.0,49.0
40801,760.0,621.0,49.0
40802,493.0,621.0,49.0
40803,493.0,621.0,49.0
40804,493.0,621.0,49.0
40805,493.0,621.0,49.0
40806,547.0,621.0,49.0
40807,547.0,621.0,49.0
40808,547.0,444.0,49.0
40809,547.0,444.0,49.0
40810,547.0,444.0,49.0
40811,547.0,444.0,49.0
40812,547.0,444.0,49.0
40813,547.0,444.0,49.0
40814,547.0,444.0,49.0
40815,547.0,444.0,49.0
40816,547.0,444.0,49.0
40817,802.0,444.0,49.0
40818,802.0,444.0,49.0
40819,802.0,444.0,49.0
40820,802.0,444.0,49.0
40821,802.0,444.0,49.0
40822,802.0,444.0,49.0
40823,802.0,444.0,221.0
40824,802.0,444.0,221.0
40825,802.0,444.0,221.0
40826,939.0,444.0,221.0
40827,939.0,444.0,221.0
40828,939.0,444.0,221.0
40829,939.0,444.0,221.0
40830,939.0,444.0,221.0
40831,691.0,444.0,221.0
40832,691.0,444.0,221.0
40833,858.0,444.0,221.0
40834,858.0,444.0,221.0
40835,936.0,444.0,221.0
40836,936.0,444.0,221.0
40837,936.0,444.0,221.0
40838,936.0,444.0,221.0
40839,626.0,444.0,221.0
40840,1028.0,444.0,221.0
40841,1028.0,444.0,221.0
40842,1028.0,444.0,221.0
40843,1028.0,444.0,221.0
40844,1028.0,444.0,221.0
40845,1028.0,444.0,221.0
40846,1028.0,444.0,221.0
40847,1028.0,444.0,221.0
40848,1028.0,444.0,221.0
40849,1028.0,444.0,221.0
40850,1028.0,444.0,221.0
40851,1028.0,444.0,221.0
40852,1028.0,444.0,221.0
40853,1028.0,444.0,221.0
40854,1028.0,444.0,221.0
40855,1028.0,444.0,221.0
40856,1028.0,444.0,143.0
40857,1028.0,444.0,143.0
40858,1028.0,444.0,143.0
40859,1028.0,444.0,143.0
40860,1028.0,444.0,143.0
40861,1028.0,444.0,143.0
40862,1028.0,444.0,143.0
40863,1028.0,444.0,143.0
40864,1028.0,444.0,143.0
40865,1028.0,444.0,143.0
40866,1028.0,444.0,143.0
40867,1028.0,444.0,192.0
40868,1028.0,444.0,192.0
40869,1028.0,444.0,192.0
40870,1028.0,444.0,192.0
40871,1028.0,444.0,192.0
40872,1028.0,444.0,192.0
40873,1028.0,444.0,192.0
40874,1028.0,444.0,192.0
40875,1028.0,444.0,192.0
40876,1028.0,444.0,192.0
40877,1028.0,444.0,192.0
40878,1028.0,444.0,192.0
40879,503.0,444.0,192.0
40880,552.0,444.0,192.0
40881,552.0,444.0,192.0
40882,790.0,444.0,192.0
40883,790.0,444.0,192.0
40884,790.0,444.0,192.0
40885,790.0,444.0,192.0
40886,790.0,444.0,192.0
40887,790.0,444.0,192.0
40888,790.0,444.0,192.0
40889,790.0,444.0,192.0
40890,790.0,444.0,192.0
40891,790.0,444.0,192.0
40892,790.0,444.0,192.0
40893,790.0,444.0,192.0
40894,790.0,444.0,192.0
40895,790.0,444.0,192.0
40896,790.0,444.0,192.0
40897,790.0,444.0,192.0
40898,790.0,444.0,192.0
40899,790.0,444.0,192.0
40900,790.0,444.0,192.0
40901,790.0,444.0,192.0
40902,359.0,444.0,192.0
40903,627.0,444.0,192.0
40904,627.0,444.0,192.0
40905,627.0,444.0,192.0
40906,627.0,444.0,192.0
40907,627.0,444.0,192.0
40908,627.0,444.0,192.0
40909,627.0,444.0,192.0
40910,627.0,444.0,192.0
40911,627.0,444.0,192.0
40912,627.0,444.0,192.0
40913,627.0,444.0,192.0
40914,627.0,444.0,192.0
40915,627.0,444.0,192.0
40916,627.0,444.0,192.0
40917,627.0,444.0,192.0
40918,989.0,444.0,192.0
40919,989.0,444.0,192.0
40920,989.0,444.0,192.0
40921,989.0,444.0,192.0
42341,738.0,575.0,268.0
42342,738.0,181.0,268.0
42343,738.0,181.0,268.0
42344,738.0,181.0,268.0
42345,738.0,181.0,268.0
42346,738.0,181.0,169.0
42347,738.0,181.0,169.0
42348,738.0,181.0,169.0
42349,738.0,181.0,169.0
42350,738.0,181.0,95.0
42351,738.0,181.0,95.0
42352,738.0,181.0,95.0
42353,738.0,181.0,95.0
42354,738.0,181.0,54.0
42355,738.0,181.0,54.0
42356,1187.0,181.0,54.0
42357,1101.0,181.0,54.0
42358,695.0,181.0,54.0
42359,695.0,181.0,54.0
42360,466.0,181.0,54.0
42361,466.0,181.0,54.0
42362,466.0,181.0,54.0
42363,466.0,181.0,54.0
42364,466.0,181.0,54.0
42365,466.0,181.0,54.0
42366,466.0,181.0,54.0
42367,466.0,181.0,54.0
42368,466.0,181.0,54.0
42369,466.0,181.0,54.0
42370,466.0,181.0,54.0
42371,466.0,181.0,54.0
42372,466.0,181.0,54.0
42373,466.0,181.0,54.0
42374,1080.0,181.0,54.0
42375,464.0,181.0,54.0
42376,464.0,181.0,54.0
42377,1056.0,181.0,54.0
42378,655.0,181.0,54.0
42379,990.0,181.0,54.0
42380,990.0,181.0,54.0
42381,806.0,181.0,54.0
42382,806.0,181.0,54.0
42383,654.0,181.0,54.0
42384,654.0,181.0,54.0
42385,654.0,181.0,54.0
42386,654.0,181.0,276.0
42387,654.0,181.0,96.0
42388,654.0,181.0,313.0
42389,654.0,181.0,313.0
42390,654.0,181.0,209.0
42391,654.0,181.0,209.0
42392,654.0,181.0,209.0
42393,654.0,181.0,209.0
42394,654.0,181.0,209.0
42395,654.0,181.0,209.0
42396,654.0,181.0,209.0
42397,654.0,181.0,209.0
42398,654.0,181.0,209.0
42399,1044.0,181.0,209.0
42400,1044.0,181.0,209.0
42401,1044.0,181.0,211.0
42402,1044.0,181.0,211.0
42403,1044.0,181.0,211.0
42404,1044.0,181.0,211.0
42405,1044.0,181.0,211.0
42406,1044.0,181.0,211.0
42407,1044.0,181.0,211.0
42408,1160.0,181.0,211.0
42409,1160.0,181.0,211.0
42410,1160.0,181.0,211.0
42411,1160.0,181.0,211.0
42412,1160.0,181.0,211.0
42413,1160.0,181.0,211.0
42414,1160.0,181.0,211.0
42415,1160.0,181.0,211.0
42416,1160.0,181.0,428.0
42417,1160.0,181.0,428.0
42418,1160.0,181.0,134.0
42419,1160.0,181.0,134.0
42420,1160.0,181.0,134.0
42421,1160.0,181.0,134.0
42422,1160.0,181.0,159.0
42423,1160.0,181.0,159.0
42424,1160.0,181.0,159.0
42425,1160.0,181.0,159.0
42426,1160.0,181.0,159.0
42427,1160.0,181.0,159.0
42428,1160.0,181.0,159.0
42429,1160.0,181.0,159.0
42430,1160.0,181.0,159.0
42431,1160.0,181.0,159.0
42432,1160.0,181.0,159.0
42433,1483.0,181.0,159.0
42434,1483.0,181.0,159.0
42435,1483.0,181.0,603.0
42436,1483.0,181.0,603.0
42437,1483.0,181.0,603.0
42438,1483.0,181.0,603.0
42439,1483.0,181.0,603.0
42440,1483.0,181.0,603.0
42441,1483.0,181.0,603.0
42442,1483.0,181.0,603.0
42443,1483.0,181.0,324.0
42444,1483.0,181.0,324.0
42445,1483.0,181.0,262.0
42446,1483.0,181.0,262.0
42447,1483.0,181.0,262.0
42448,1483.0,181.0,262.0
42449,1483.0,181.0,328.0
42450,1483.0,181.0,328.0
42451,1483.0,181.0,328.0
42452,1483.0,181.0,328.0
42453,1483.0,181.0,328.0
42454,1483.0,181.0,328.0
42455,1483.0,181.0,328.0
42456,1483.0,181.0,328.0
42457,1483.0,181.0,328.0
42458,1483.0,181.0,328.0
42459,1483.0,181.0,328.0
42460,1483.0,181.0,328.0
42461,1483.0,181.0,294.0
42462,1483.0,181.0,294.0
42463,1483.0,181.0,422.0
42464,1483.0,181.0,154.0
42465,1483.0,181.0,154.0
42466,1483.0,181.0,204.0
42467,1483.0,181.0,204.0
42468,1483.0,181.0,204.0
42469,1483.0,181.0,204.0
42470,1483.0,181.0,204.0
42471,1483.0,181.0,204.0
42472,1483.0,181.0,204.0
42473,1483.0,181.0,204.0
42474,1483.0,181.0,204.0
42475,1483.0,181.0,204.0
42476,1483.0,181.0,204.0
42477,1483.0,181.0,204.0
42478,1483.0,181.0,204.0
42479,1483.0,181.0,204.0
42480,1483.0,181.0,204.0
42481,1483.0,181.0,372.0
42482,1483.0,181.0,372.0
42483,1483.0,181.0,196.0
42484,1483.0,181.0,159.0
42485,1483.0,181.0,159.0
42486,1483.0,181.0,159.0
42487,1483.0,181.0,159.0
42488,1483.0,181.0,159.0
42489,1483.0,181.0,159.0
42490,1483.0,181.0,159.0
42491,1483.0,181.0,159.0
42492,1483.0,181.0,159.0
42493,1483.0,181.0,159.0
42494,1483.0,181.0,159.0
42495,1483.0,181.0,159.0
44158,3526.0,986.0,523.0
44159,3526.0,986.0,523.0
44160,3526.0,986.0,523.0
44161,3526.0,986.0,523.0
44162,3526.0,986.0,735.0
44163,3526.0,986.0,735.0
44164,3526.0,986.0,1234.0
44165,3526.0,2227.0,1234.0
44166,3526.0,1216.0,1234.0
44167,3526.0,1216.0,1234.0
44168,3526.0,1216.0,1234.0
44169,1690.0,1216.0,1234.0
44170,1690.0,1216.0,1234.0
44171,1690.0,1216.0,1234.0
44172,1690.0,1216.0,1234.0
44173,35.0,1216.0,1234.0
44174,1690690.0,2106.0,1234.0
44175,4781.0,2106.0,1234.0
44176,4781.0,2106.0,1234.0
44177,4781.0,2106.0,1234.0
44178,4781.0,2106.0,1234.0
44179,4781.0,2106.0,1234.0
44180,4781.0,2106.0,1234.0
44181,4781.0,2106.0,1234.0
44182,4781.0,2106.0,1234.0
44183,4781.0,2106.0,1234.0
44184,4781.0,2106.0,1234.0
44185,4781.0,2106.0,560.0
44186,4781.0,2106.0,560.0
44187,1998.0,2106.0,560.0
44188,1998.0,2106.0,560.0
44189,1998.0,1325.0,560.0
44190,1998.0,1325.0,560.0
44191,1998.0,1325.0,560.0
44192,1998.0,1325.0,560.0
44193,1998.0,1325.0,909.0
44194,1915.0,1325.0,909.0
44195,1915.0,1325.0,909.0
44196,1915.0,1325.0,909.0
44197,1915.0,1325.0,909.0
44198,1915.0,1325.0,1203.0
44199,1915.0,1325.0,1203.0
44200,1915.0,1325.0,1203.0
44201,1915.0,809.0,1249.0
44202,1915.0,809.0,1249.0
44203,1915.0,1200.0,1513.0
44204,1915.0,1200.0,1513.0
44205,1915.0,1200.0,1513.0
44206,1915.0,1440.0,1513.0
44207,1915.0,1913.0,716.0
44208,1915.0,1913.0,716.0
44209,1915.0,1913.0,1106.0
44210,1915.0,1913.0,1106.0
44211,1915.0,1913.0,1106.0
44212,1915.0,1913.0,1106.0
44213,1915.0,1913.0,1106.0
44214,1915.0,1913.0,1106.0
44215,1915.0,1913.0,1106.0
44216,1915.0,1913.0,1106.0
44217,1915.0,1913.0,1106.0
44218,1915.0,1913.0,345.0
44219,1915.0,1913.0,345.0
44220,1915.0,1913.0,345.0
44221,191515.0,1913.0,345.0
44222,1915.0,1913.0,345.0
44223,2558.0,1913.0,345.0
44224,2350.0,1913.0,345.0
44225,2350.0,1913.0,345.0
44226,2350.0,1913.0,345.0
44227,2350.0,1913.0,345.0
44228,2350.0,1913.0,345.0
44229,2350.0,1913.0,345.0
44230,2350.0,899.0,345.0
44231,2350.0,899.0,345.0
44232,2350.0,899.0,345.0
44233,2350.0,899.0,345.0
44234,2350.0,899.0,345.0
44235,2350.0,899.0,345.0
44236,2350.0,899.0,345.0
44237,2350.0,899.0,345.0
44238,2350.0,899.0,345.0
44239,2350.0,899.0,345.0
44240,2350.0,899.0,345.0
44241,2350.0,899.0,1149.0
44242,2350.0,899.0,1149.0
44243,2350.0,899.0,1149.0
44244,2350.0,899.0,1149.0
44245,2350.0,2128.0,1149.0
44246,2350.0,2128.0,1149.0
44247,2350.0,2128.0,1149.0
44248,2319.0,2128.0,647.0
44249,2319.0,2128.0,1139.0
44250,2319.0,2128.0,1139.0
44251,2319.0,2128.0,1139.0
44252,2319.0,2128.0,1139.0
44253,2319.0,2128.0,1139.0
44254,2319.0,2128.0,1139.0
44255,2319.0,2128.0,1139.0
44256,2319.0,2128.0,1139.0
44257,2319.0,2128.0,1139.0
44258,2319.0,2128.0,1139.0
44259,2319.0,2128.0,1139.0
44260,2319.0,2128.0,1139.0
44261,2319.0,1599.0,1139.0
44262,2319.0,1599.0,1139.0
44263,2319.0,1599.0,1139.0
44264,9.0,1599.0,1139.0
44265,231319.0,1599.0,1139.0
44266,2319.0,1599.0,781.0
44267,2319.0,1599.0,781.0
44268,2319.0,1599.0,781.0
44269,2319.0,1599.0,781.0
44270,2319.0,1599.0,781.0
44271,2319.0,1599.0,974.0
44272,2319.0,1599.0,974.0
44273,2319.0,1599.0,1235.0
44274,2319.0,1599.0,1235.0
44275,2319.0,1599.0,1235.0
44276,2319.0,1599.0,1235.0
44277,2319.0,1599.0,1235.0
44278,2319.0,1599.0,1235.0
44279,2319.0,1599.0,253.0
44280,2319.0,1599.0,253.0
44281,2319.0,1599.0,253.0
44282,2319.0,1599.0,253.0
44283,2319.0,1599.0,253.0
44284,2319.0,1599.0,253.0
44285,2319.0,1599.0,253.0
44286,2319.0,1599.0,1574.0
44287,2319.0,1599.0,1574.0
44288,2319.0,1599.0,1574.0
44289,2319.0,1599.0,771.0
44290,2616.0,1599.0,771.0
44291,2616.0,1599.0,771.0
44292,2616.0,1599.0,771.0
44293,2616.0,1599.0,771.0
44294,2616.0,1599.0,771.0
44295,2616.0,1599.0,694.0
44296,2370.0,1599.0,694.0
44297,2370.0,1599.0,694.0
44298,2370.0,1599.0,563.0
44299,2370.0,1599.0,563.0
44300,2668.0,1599.0,563.0
44301,2668.0,1411.0,563.0
44302,2668.0,1411.0,563.0
44303,2668.0,1411.0,563.0
44304,2668.0,1411.0,984.0
44305,2668.0,1411.0,499.0
46085,2338.0,985.0,755.0
46086,2338.0,985.0,755.0
46087,2338.0,985.0,755.0
46088,2338.0,985.0,755.0
46089,23385.0,985.0,755.0
46090,1454.0,985.0,755.0
46091,129.0,985.0,755.0
46092,1454.0,985.0,755.0
46093,2166.0,985.0,755.0
46094,2166.0,985.0,755.0
46095,2166.0,985.0,755.0
46096,2166.0,985.0,755.0
46097,2166.0,985.0,755.0
46098,2166.0,985.0,755.0
46099,2166.0,985.0,755.0
46100,2166.0,985.0,755.0
46101,2166.0,985.0,755.0
46102,2166.0,985.0,755.0
46103,2011.0,985.0,315.0
46104,2011.0,985.0,1155.0
46105,2011.0,985.0,1155.0
46106,1877.0,985.0,1155.0
46107,1877.0,985.0,1155.0
46108,277.0,985.0,1155.0
46109,181877.0,985.0,766.0
46110,1877.0,985.0,766.0
46111,1877.0,985.0,766.0
46112,1877.0,985.0,766.0
46113,1877.0,985.0,864.0
46114,1877.0,985.0,864.0
46115,1877.0,985.0,864.0
46116,1877.0,985.0,864.0
46117,1877.0,985.0,864.0
46118,2041.0,985.0,864.0
46119,3362.0,985.0,864.0
46120,3362.0,985.0,864.0
46121,3362.0,985.0,864.0
46122,3362.0,985.0,864.0
46123,3362.0,985.0,864.0
46124,1880.0,985.0,643.0
46125,1880.0,985.0,643.0
46126,1880.0,985.0,654.0
46127,1880.0,2463.0,654.0
46128,1880.0,349.0,1158.0
46129,1880.0,349.0,838.0
46130,1880.0,349.0,1254.0
46131,1880.0,349.0,1254.0
46132,1880.0,349.0,1254.0
46133,1880.0,1093.0,1254.0
46134,1880.0,2969.0,1254.0
46135,1880.0,2969.0,1254.0
46136,1880.0,2969.0,1254.0
46137,1880.0,2969.0,1254.0
46138,1880.0,2969.0,705.0
46139,1880.0,2969.0,705.0
46140,1880.0,2969.0,705.0
46141,1880.0,2969.0,705.0
46142,1880.0,2969.0,705.0
46143,1880.0,2969.0,705.0
46144,100.0,1266.0,705.0
46145,1230.0,1266.0,705.0
46146,1230.0,1266.0,705.0
46147,1230.0,1266.0,705.0
46148,1230.0,1266.0,705.0
46149,2418.0,1266.0,705.0
46150,2418.0,1266.0,705.0
46151,2418.0,1266.0,705.0
46152,2418.0,1266.0,705.0
46153,2418.0,2200.0,705.0
46154,2418.0,2200.0,705.0
46155,2405.0,2200.0,705.0
46156,2405.0,2200.0,705.0
46157,2405.0,2200.0,705.0
46158,2405.0,1345.0,705.0
46159,2405.0,1345.0,705.0
46160,2274.0,1345.0,705.0
46161,2274.0,1345.0,705.0
46162,2274.0,1345.0,705.0
46163,2274.0,1345.0,705.0
46164,2145.0,1345.0,331.0
46165,2145.0,1345.0,331.0
46166,2145.0,1345.0,845.0
46167,2145.0,1345.0,845.0
46168,2415.0,1345.0,845.0
46169,2415.0,1345.0,845.0
46170,2415.0,1345.0,845.0
46171,2415.0,1345.0,845.0
46172,2415.0,1345.0,845.0
46173,2415.0,1345.0,888.0
46174,2415.0,1345.0,888.0
46175,2415.0,1345.0,888.0
46176,2415.0,1345.0,888.0
46177,2223.0,1345.0,888.0
46178,2223.0,1345.0,888.0
46179,2396.0,1345.0,888.0
46180,2396.0,1345.0,888.0
46181,2396.0,1345.0,888.0
46182,2396.0,1345.0,888.0
46183,1611.0,1345.0,888.0
46184,1611.0,1345.0,888.0
46185,1611.0,1345.0,888.0
46186,2960.0,1345.0,888.0
46187,2960.0,1345.0,921.0
46188,2688.0,1345.0,1187.0
46189,2688.0,1345.0,1187.0
46190,1646.0,1345.0,1187.0
46191,1646.0,1345.0,1187.0
46192,1646.0,1345.0,1187.0
46193,588.0,1345.0,1187.0
46194,588.0,1345.0,1187.0
46195,1138.0,1345.0,1187.0
46196,1138.0,1345.0,1187.0
46197,1138.0,2090.0,1187.0
46198,1138.0,2090.0,1187.0
46199,1419.0,1553.0,1187.0
46200,1419.0,1553.0,1187.0
46201,1419.0,1553.0,1187.0
46202,1419.0,1553.0,1187.0
46203,1419.0,1553.0,1187.0
46204,1419.0,1553.0,1187.0
46205,2041.0,1553.0,1187.0
46206,2041.0,1553.0,1187.0
46207,2041.0,1424.0,1187.0
46208,2041.0,1424.0,1187.0
47842,966.0,233.0,416.0
47843,966.0,233.0,391.0
47844,966.0,233.0,834.0
47845,966.0,233.0,834.0
47846,966.0,233.0,834.0
47847,966.0,233.0,834.0
47848,966.0,233.0,834.0
47849,966.0,233.0,834.0
47850,966.0,233.0,834.0
47851,966.0,233.0,603.0
47852,966.0,131.0,603.0
47853,966.0,131.0,529.0
47854,966.0,258.0,529.0
47855,966.0,258.0,529.0
47856,966.0,258.0,529.0
47857,966.0,258.0,529.0
47858,966.0,258.0,529.0
47859,966.0,258.0,529.0
47860,966.0,258.0,529.0
47861,966.0,258.0,529.0
47862,1130.0,258.0,529.0
47863,1130.0,258.0,529.0
47864,755.0,258.0,483.0
47865,755.0,258.0,483.0
47866,755755.0,258.0,483.0
47867,755.0,258.0,483.0
47868,755.0,258.0,483.0
47869,755.0,215.0,483.0
47870,755.0,215.0,483.0
47871,755.0,215.0,483.0
47872,755.0,215.0,483.0
47873,843.0,215.0,483.0
47874,843.0,215.0,483.0
47875,843.0,215.0,483.0
47876,843.0,215.0,483.0
47877,843.0,215.0,483.0
47878,843.0,215.0,483.0
47879,843.0,215.0,483.0
47880,843.0,215.0,483.0
47881,843.0,215.0,483.0
47882,801.0,215.0,483.0
47883,801.0,213.0,483.0
47884,801.0,286.0,483.0
47885,801.0,67.0,483.0
47886,801.0,132.0,483.0
47887,801.0,158.0,483.0
47888,801.0,197.0,483.0
47889,1175.0,197.0,483.0
47890,814.0,197.0,483.0
47891,814.0,197.0,483.0
47892,814.0,197.0,483.0
47893,814.0,131.0,483.0
47894,814.0,131.0,483.0
47895,814.0,201.0,483.0
47896,814.0,201.0,483.0
47897,814.0,201.0,483.0
47898,814.0,201.0,483.0
47899,814.0,172.0,483.0
47900,814.0,172.0,483.0
47901,631.0,172.0,483.0
47902,1110.0,172.0,483.0
47903,850.0,172.0,483.0
47904,836.0,172.0,483.0
47905,1375.0,172.0,483.0
47906,1375.0,172.0,1241.0
47907,1375.0,172.0,1241.0
47908,534.0,172.0,1241.0
47909,8.0,172.0,1241.0
47910,1289.0,172.0,1241.0
47911,1289.0,212.0,1241.0
47912,1289.0,269.0,1241.0
47913,1289.0,221.0,1241.0
47914,1289.0,221.0,1241.0
47915,876.0,221.0,1241.0
47916,876.0,221.0,1241.0
47917,755.0,221.0,1241.0
47918,1280.0,221.0,1241.0
47919,1280.0,221.0,1241.0
47920,1280.0,221.0,1241.0
47921,307.0,221.0,1241.0
47922,307.0,224.0,1241.0
47923,307.0,224.0,1241.0
47924,307.0,206.0,1241.0
47925,307.0,206.0,1241.0
47926,307.0,206.0,1241.0
47927,512.0,206.0,1241.0
47928,512.0,204.0,1241.0
47929,512.0,158.0,1241.0
47930,512.0,158.0,1241.0
47931,512.0,158.0,1241.0
47932,512.0,158.0,1241.0
47933,512.0,158.0,1241.0
47934,512.0,158.0,1241.0
47935,512.0,164.0,1241.0
47936,512.0,164.0,1241.0
47937,512.0,113.0,1241.0
47938,512.0,113.0,1241.0
47939,512.0,178.0,1241.0
47940,512.0,178.0,1241.0
47941,1161.0,178.0,1241.0
47942,1161.0,178.0,1241.0
47943,1161.0,195.0,1241.0
47944,1161.0,195.0,1241.0
47945,1161.0,195.0,1241.0
47946,1161.0,195.0,642.0
47947,583.0,195.0,642.0
47948,583.0,195.0,642.0
47949,891.0,195.0,642.0
47950,891.0,195.0,642.0
47951,891.0,195.0,642.0
47952,891.0,195.0,642.0
47953,891.0,195.0,642.0
47954,891.0,195.0,582.0
47955,891.0,195.0,582.0
47956,891.0,250.0,582.0
47957,891.0,250.0,582.0
47958,891.0,250.0,582.0
47959,891.0,250.0,582.0
47960,891.0,250.0,582.0
47961,983.0,250.0,582.0
47962,983.0,250.0,582.0
47963,983.0,250.0,582.0
47964,983.0,250.0,582.0
47965,983.0,192.0,582.0
47966,983.0,192.0,582.0
47967,983.0,192.0,582.0
47968,983.0,119.0,582.0
47969,983.0,132.0,582.0
47970,983.0,132.0,247.0
47971,983.0,132.0,247.0
47972,983.0,132.0,247.0
49284,509.0,120.0,687.0
49285,509.0,120.0,687.0
49286,50.0,120.0,687.0
49287,509.0,120.0,687.0
49288,509.0,120.0,687.0
49289,509.0,120.0,687.0
49290,509.0,122.0,687.0
49291,509.0,122.0,687.0
49292,509.0,122.0,687.0
49293,509.0,122.0,687.0
49294,509.0,122.0,687.0
49295,509.0,122.0,687.0
49296,509.0,122.0,687.0
49297,509.0,77.0,687.0
49298,509.0,77.0,687.0
49299,509.0,77.0,687.0
49300,509.0,77.0,466.0
49301,509.0,77.0,466.0
49302,509.0,77.0,466.0
49303,509.0,77.0,466.0
49304,509.0,77.0,466.0
49305,509.0,77.0,466.0
49306,509.0,77.0,187.0
49307,509.0,77.0,187.0
49308,509.0,77.0,187.0
49309,509.0,77.0,187.0
49310,509.0,77.0,187.0
49311,509.0,77.0,187.0
49312,509.0,77.0,187.0
49313,509.0,77.0,525.0
49314,509.0,77.0,730.0
49315,509.0,77.0,730.0
49316,509.0,167.0,730.0
49317,509.0,167.0,730.0
49318,509.0,241.0,730.0
49319,509.0,241.0,730.0
49320,509.0,241.0,730.0
49321,509.0,241.0,730.0
49322,509.0,241.0,730.0
49323,509.0,241.0,730.0
49324,509.0,241.0,730.0
49325,509.0,241.0,730.0
49326,509.0,241.0,730.0
49327,509.0,241.0,730.0
49328,509.0,229.0,730.0
49329,9.0,62.0,730.0
49330,509.0,62.0,730.0
49331,509.0,380.0,730.0
49332,509.0,380.0,730.0
49333,509.0,364.0,730.0
49334,509.0,364.0,426.0
49335,509.0,364.0,426.0
49336,509.0,364.0,426.0
49337,509.0,364.0,426.0
49338,509.0,364.0,426.0
49339,509.0,364.0,426.0
49340,509.0,364.0,426.0
49341,509.0,364.0,641.0
49342,509.0,364.0,641.0
49343,509.0,364.0,641.0
49344,509.0,364.0,641.0
49345,509.0,364.0,641.0
49346,509.0,273.0,433.0
49347,509.0,273.0,433.0
49348,509.0,273.0,433.0
49349,509.0,273.0,538.0
49350,509.0,273.0,538.0
49351,509.0,273.0,538.0
49352,509.0,273.0,375.0
49353,509.0,273.0,375.0
49354,509.0,273.0,375.0
49355,509.0,273.0,375.0
49356,509.0,273.0,375.0
49357,509.0,184.0,375.0
49358,509.0,184.0,424.0
49359,509.0,184.0,424.0
49360,509.0,184.0,424.0
49361,509.0,184.0,424.0
49362,509.0,184.0,424.0
49363,509.0,288.0,424.0
49364,509.0,288.0,424.0
49365,509.0,288.0,424.0
49366,509.0,288.0,424.0
49367,509.0,48.0,424.0
49368,509.0,211.0,424.0
49369,509.0,211.0,424.0
49370,509.0,75.0,424.0
49371,509.0,75.0,424.0
49372,509.0,75.0,424.0
49373,509.0,75.0,424.0
49374,509.0,75.0,424.0
49375,509.0,75.0,424.0
49376,509.0,75.0,424.0
49377,166.0,424.0,764.0
49378,166.0,424.0,764.0
49379,185.0,424.0,764.0
49380,280.0,424.0,764.0
49381,109.0,424.0,764.0
49382,293.0,424.0,764.0
49383,143.0,424.0,764.0
49384,143.0,424.0,764.0
49385,143.0,424.0,983.0
49386,143.0,424.0,706.0
49387,143.0,424.0,706.0
49388,210.0,424.0,706.0
49389,210.0,424.0,706.0
49390,210.0,424.0,706.0
49391,210.0,424.0,706.0
49392,210.0,424.0,706.0
49393,210.0,424.0,992.0
49394,210.0,424.0,992.0
49395,210.0,424.0,1681.0
49396,210.0,424.0,734.0
49397,210.0,424.0,734.0
49398,42.0,424.0,734.0
49399,42.0,424.0,866.0
49400,28.0,424.0,866.0
49401,28.0,424.0,710.0
49402,180.0,424.0,710.0
49403,280.0,424.0,446.0
49404,180.0,424.0,666.0
49405,180.0,424.0,666.0
49406,180.0,424.0,666.0
49407,101.0,424.0,666.0
49408,189.0,424.0,666.0
49409,142.0,424.0,666.0
50000,755.0,824.0,320.0
50001,755.0,824.0,320.0
50002,755.0,824.0,320.0
50003,755.0,824.0,320.0
50004,755.0,824.0,320.0
50005,755.0,1054.0,320.0
50006,794.0,1054.0,320.0
50007,794.0,1062.0,269.0
50008,794.0,1062.0,269.0
50009,794.0,1062.0,269.0
50010,794.0,1062.0,269.0
50011,794.0,1062.0,269.0
50012,794.0,1062.0,371.0
50013,794.0,1062.0,371.0
50014,164.0,1062.0,190.0
50015,421.0,1062.0,190.0
50016,421.0,1062.0,125.0
50017,421.0,1062.0,125.0
50018,421.0,1062.0,297.0
50019,421.0,1062.0,297.0
50020,865.0,1062.0,297.0
50021,865.0,1062.0,297.0
50022,865.0,1062.0,297.0
50023,865.0,1062.0,297.0
50024,865.0,1062.0,297.0
50025,865.0,1062.0,297.0
50026,865.0,1062.0,297.0
50027,325.0,1062.0,297.0
50028,325.0,1062.0,297.0
50029,325.0,1062.0,297.0
50030,325.0,1085.0,297.0
50031,325.0,1323.0,297.0
50032,325.0,465.0,297.0
50033,325.0,465.0,297.0
50034,325.0,465.0,297.0
50035,325.0,465.0,297.0
50036,325.0,465.0,297.0
50037,325.0,1061.0,297.0
50038,325.0,1220.0,297.0
50039,325.0,1220.0,297.0
50040,325.0,1220.0,297.0
50041,325.0,1220.0,297.0
50042,325.0,1057.0,297.0
50043,325.0,1057.0,297.0
50044,325.0,1676.0,297.0
50045,325.0,1676.0,297.0
50046,325.0,1676.0,297.0
50047,325.0,1676.0,297.0
50048,325.0,1676.0,297.0
50049,325.0,505.0,297.0
50050,325.0,505.0,297.0
50051,325.0,1233.0,297.0
50052,325.0,1233.0,297.0
50053,325.0,1451.0,297.0
50054,325.0,678.0,297.0
50055,325.0,678.0,297.0
50056,325.0,678.0,297.0
50057,325.0,678.0,297.0
50058,603.0,678.0,297.0
50059,603.0,678.0,297.0
50060,603.0,678.0,297.0
50061,603.0,678.0,297.0
50062,603.0,678.0,297.0
50063,603.0,678.0,297.0
50064,603.0,678.0,297.0
50065,603.0,601.0,297.0
50066,603.0,601.0,297.0
50067,603.0,601.0,297.0
50068,603.0,601.0,297.0
50069,603.0,601.0,297.0
50070,603.0,601.0,297.0
50071,603.0,601.0,297.0
50072,603.0,601.0,297.0
50073,603.0,601.0,297.0
50074,603.0,601.0,297.0
50075,603.0,1266.0,297.0
50076,603.0,1173.0,297.0
50077,603.0,1173.0,297.0
50078,603.0,1173.0,297.0
57008,2573.0,1108.0,2333.0
57009,2573.0,1108.0,2645.0
57010,100.0,1108.0,2645.0
57011,20.0,1108.0,2578.0
57012,1766.0,893.0,1484.0
57013,766.0,893.0,1484.0
57014,1766.0,893.0,2544.0
57015,1766.0,965.0,2544.0
57016,1766.0,965.0,2374.0
57017,1766.0,965.0,2374.0
57018,1766.0,340.0,2374.0
57019,1766.0,999.0,2533.0
57020,1766.0,787.0,2618.0
57021,1766.0,787.0,2618.0
57022,1766.0,787.0,2618.0
57023,1766.0,749.0,2618.0
57024,1766.0,882.0,2618.0
57025,1766.0,775.0,2618.0
57026,1766.0,1468.0,1065.0
57027,1766.0,1468.0,1065.0
57028,1766.0,1468.0,1065.0
57029,1766.0,1468.0,1065.0
57030,1766.0,1058.0,1065.0
57031,1766.0,1058.0,1065.0
57032,1766.0,561.0,1065.0
57033,1.0,1209.0,1065.0
57034,1766.0,1158.0,1065.0
57035,2196.0,1158.0,1065.0
57036,2196.0,954.0,1065.0
57037,2196.0,954.0,1065.0
57038,2196.0,1450.0,1065.0
57039,2196.0,1450.0,1065.0
57040,2196.0,779.0,1065.0
57041,2196.0,779.0,1065.0
57042,2196.0,779.0,1065.0
57043,2174.0,1184.0,1065.0
57044,2174.0,1184.0,1065.0
57045,2174.0,1184.0,1065.0
57046,2174.0,1184.0,1065.0
57047,2174.0,1184.0,1065.0
57048,1066.0,1184.0,1065.0
57049,1066.0,802.0,1065.0
57050,1066.0,802.0,1065.0
57051,1066.0,802.0,1065.0
57052,1066.0,802.0,1065.0
57053,1066.0,802.0,1065.0
57054,1066.0,802.0,1065.0
57055,1066.0,802.0,1065.0
57056,1066.0,862.0,1065.0
57057,1066.0,1014.0,1065.0
57058,1706.0,1014.0,1065.0
57059,1706.0,1014.0,1065.0
57060,1706.0,1014.0,3555.0
57061,1706.0,1014.0,5917.0
57062,1706.0,1014.0,1581.0
57063,1706.0,1014.0,1581.0
57064,1390.0,1014.0,1581.0
57065,1390.0,1014.0,1581.0
57066,1390.0,1014.0,1581.0
57067,1732.0,1014.0,1581.0
57068,1732.0,1014.0,1581.0
57069,1732.0,1014.0,1581.0
57070,1732.0,1014.0,1581.0
57071,11732.0,1014.0,1581.0
57072,1732.0,1258.0,1581.0
57073,1732.0,1258.0,1581.0
57074,1732.0,634.0,1581.0
57075,1732.0,634.0,1581.0
57076,579.0,634.0,1581.0
57077,579.0,634.0,1581.0
57078,1717.0,1553.0,1581.0
57079,1717.0,1553.0,1581.0
57080,1717.0,1553.0,1581.0
57081,1270.0,1553.0,1581.0
57082,1270.0,1553.0,1581.0
57083,1270.0,1553.0,1581.0
57084,1270.0,1553.0,1581.0
57085,1270.0,1553.0,1581.0
57086,1658.0,889.0,1581.0
57087,1658.0,889.0,1685.0
57088,1658.0,889.0,1685.0
57089,739.0,889.0,1685.0
57090,1991.0,889.0,1685.0
57091,1443.0,889.0,1685.0
57092,1443.0,889.0,1685.0
57093,1443.0,889.0,1685.0
57094,1443.0,889.0,1685.0
57095,11443.0,889.0,1685.0
57096,1411.0,889.0,1685.0
57097,1411.0,889.0,1685.0
57098,1411.0,925.0,1685.0
57099,2157.0,925.0,1685.0
57100,2157.0,925.0,1685.0
57101,2157.0,925.0,1685.0
57102,2157.0,925.0,1685.0
57103,2157.0,925.0,1685.0
57104,2157.0,925.0,1685.0
57105,1579.0,925.0,1685.0
57106,1579.0,925.0,1685.0
57107,1557.0,925.0,1685.0
57108,557.0,925.0,1685.0
57109,1557.0,894.0,1685.0
57110,1557.0,894.0,1685.0
57111,1557.0,894.0,1685.0
57112,1557.0,894.0,1685.0
57113,1557.0,894.0,1685.0
57114,1557.0,894.0,1685.0
57115,1557.0,894.0,1685.0
57116,1557.0,894.0,1685.0
57117,1557.0,894.0,1685.0
57118,1557.0,894.0,1685.0
57119,1399.0,894.0,1685.0
57120,1399.0,894.0,1685.0
57121,1399.0,894.0,1685.0
57122,1399.0,894.0,1685.0
57123,1399.0,894.0,1685.0
57124,1399.0,894.0,1685.0
57125,1399.0,894.0,1685.0
57126,1399.0,915.0,1685.0
57127,1399.0,915.0,1685.0
57128,1399.0,915.0,1685.0
57129,1399.0,915.0,1685.0
58840,343.0,3178.0,2718.0
58841,343.0,3178.0,1344.0
58842,343.0,3178.0,1344.0
58843,343.0,3178.0,2157.0
58844,343.0,3178.0,2157.0
58845,343.0,3178.0,2157.0
58846,343.0,3178.0,2157.0
58847,343.0,3178.0,2157.0
58848,343.0,3178.0,2157.0
58849,343.0,3178.0,2585.0
58850,343.0,3178.0,1678.0
58851,343.0,3178.0,1678.0
58852,343.0,3178.0,1678.0
58853,343.0,3178.0,1678.0
58854,950.0,3178.0,1678.0
58855,950.0,3178.0,2639.0
58856,666.0,3178.0,2639.0
58857,666.0,3178.0,2639.0
58858,969.0,3178.0,2639.0
58859,969.0,3178.0,2639.0
58860,969.0,3178.0,2639.0
58861,969.0,3178.0,2639.0
58862,504.0,3178.0,2639.0
58863,950.0,3178.0,2639.0
58864,551.0,3178.0,2639.0
58865,457.0,1394.0,2639.0
58866,457.0,1394.0,2639.0
58867,457.0,1111.0,2639.0
58868,457.0,1111.0,2639.0
58869,466.0,1111.0,2639.0
58870,466.0,1111.0,2639.0
58871,648.0,1111.0,2639.0
58872,648.0,1111.0,2639.0
58873,758.0,1111.0,2639.0
58874,758.0,1111.0,2639.0
58875,758.0,1111.0,2639.0
58876,758.0,1111.0,2639.0
58877,758.0,1111.0,2639.0
58878,758.0,1111.0,1303.0
58879,693.0,1111.0,1303.0
58880,775.0,1111.0,1303.0
58881,775.0,1111.0,1303.0
58882,775.0,1111.0,1303.0
58883,775.0,1111.0,1303.0
58884,350.0,1111.0,1303.0
58885,647.0,1111.0,1303.0
58886,647.0,1111.0,1303.0
58887,647.0,1111.0,1303.0
58888,647.0,1111.0,1303.0
58889,896.0,1111.0,1303.0
58890,896.0,1111.0,1303.0
58891,896.0,1111.0,1303.0
58892,829.0,1111.0,1303.0
58893,829.0,1111.0,1303.0
58894,829.0,1111.0,1303.0
58895,829.0,1111.0,1303.0
58896,528.0,1111.0,1303.0
58897,528.0,2278.0,1303.0
58898,1296.0,2278.0,1303.0
58899,1296.0,2278.0,1303.0
58900,1296.0,2278.0,1303.0
58901,1296.0,2278.0,1303.0
58902,1296.0,2278.0,1303.0
58903,1296.0,2278.0,1303.0
58904,1296.0,2278.0,1303.0
58905,1296.0,2278.0,1303.0
58906,671.0,2278.0,1303.0
58907,671.0,2278.0,1303.0
58908,671.0,1471.0,1303.0
58909,1.0,2468.0,1303.0
58910,671.0,3645.0,1303.0
58911,671.0,3645.0,1303.0
58912,671.0,3645.0,1303.0
58913,671.0,3645.0,1303.0
58914,671.0,3645.0,1303.0
58915,671.0,3645.0,1303.0
58916,671.0,3645.0,1303.0
58917,671.0,1324.0,1303.0
58918,671.0,1324.0,1303.0
58919,671.0,1324.0,1303.0
58920,671.0,1324.0,1303.0
58921,671.0,1324.0,1303.0
58922,671.0,1324.0,1303.0
58923,671.0,1324.0,1303.0
58924,671.0,1324.0,1303.0
58925,671.0,1324.0,1303.0
58926,671.0,1324.0,1303.0
58927,670.0,1324.0,1303.0
58928,1735.0,1324.0,1303.0
58929,1735.0,1324.0,1303.0
58930,1735.0,1324.0,1303.0
58931,1735.0,1324.0,1303.0
58932,1735.0,1324.0,1303.0
58933,1735.0,1324.0,1303.0
58934,1735.0,1352.0,1303.0
58935,1735.0,1352.0,1303.0
58936,1735.0,1352.0,1303.0
58937,1735.0,1352.0,2010.0
58938,1735.0,1352.0,2010.0
58939,1735.0,1352.0,2010.0
58940,1735.0,1352.0,2010.0
58941,1735.0,2952.0,2010.0
58942,1735.0,2952.0,2010.0
58943,1735.0,2952.0,2010.0
58944,1735.0,2952.0,2010.0
58945,1735.0,2952.0,2010.0
58946,1735.0,3161.0,2010.0
58947,1735.0,3161.0,2010.0
58948,1735.0,3161.0,2010.0
58949,1735.0,3161.0,2010.0
58950,1735.0,3161.0,2010.0
58951,1735.0,3161.0,2010.0
58952,1735.0,3161.0,2010.0
58953,1735.0,2229.0,2010.0
58954,428.0,2229.0,2010.0
58955,428.0,2229.0,2010.0
58956,428.0,2229.0,2010.0
58957,428.0,2229.0,2010.0
58958,428.0,2229.0,2010.0
58959,428.0,2229.0,2010.0
58960,824.0,2229.0,2010.0
58961,824.0,2229.0,2010.0
58962,824.0,2229.0,2010.0
58963,824.0,2229.0,2010.0
58964,824.0,1371.0,2010.0
58965,824.0,1371.0,2010.0
58966,824.0,1371.0,2010.0
58967,824.0,1371.0,2010.0
58968,824.0,1371.0,2010.0
58969,824.0,1371.0,2010.0
60502,2606.0,2265.0,3249.0
60503,2606.0,2265.0,3249.0
60504,2606.0,2265.0,3249.0
60505,2606.0,2265.0,3249.0
60506,2606.0,2265.0,3249.0
60507,2606.0,2265.0,3249.0
60508,2606.0,2265.0,3249.0
60509,2606.0,2265.0,3249.0
60510,2606.0,2265.0,3249.0
60511,230.0,2265.0,3249.0
60512,2606.0,1065.0,3249.0
60513,2606.0,1065.0,3249.0
60514,2606.0,1065.0,3249.0
60515,2606.0,1065.0,3249.0
60516,2606.0,1065.0,3249.0
60517,1826.0,1065.0,3249.0
60518,2880.0,1065.0,3249.0
60519,2880.0,1065.0,3249.0
60520,1422.0,1065.0,3249.0
60521,1422.0,1065.0,3249.0
60522,2023.0,1065.0,3249.0
60523,2023.0,1431.0,3249.0
60524,2023.0,1431.0,3249.0
60525,2023.0,1633.0,3249.0
60526,4157.0,1633.0,3249.0
60527,4157.0,1633.0,3249.0
60528,4157.0,1633.0,3249.0
60529,4157.0,1633.0,3249.0
60530,4157.0,1633.0,3249.0
60531,1989.0,1633.0,3249.0
60532,1278.0,2200.0,3249.0
60533,1278.0,2200.0,3249.0
60534,1278.0,2200.0,3249.0
60535,1278.0,2200.0,3249.0
60536,1278.0,2200.0,3249.0
60537,1278.0,2200.0,3249.0
60538,1278.0,2200.0,3249.0
60539,1278.0,2200.0,3249.0
60540,1278.0,2200.0,3249.0
60541,1278.0,2200.0,3249.0
60542,1278.0,2200.0,3249.0
60543,1278.0,2200.0,3249.0
60544,1278.0,1710.0,3249.0
60545,1278.0,659.0,3249.0
60546,1278.0,2152.0,3249.0
60547,1278.0,2152.0,3249.0
60548,1278.0,2012.0,3249.0
60549,1278.0,2012.0,3249.0
60550,1278.0,1501.0,3249.0
60551,1278.0,553.0,3249.0
60552,1278.0,553.0,3249.0
60553,1278.0,553.0,3249.0
60554,1278.0,553.0,3249.0
60555,1278.0,553.0,3249.0
60556,2567.0,553.0,3249.0
60557,2567.0,553.0,3249.0
60558,2567.0,2424.0,3249.0
60559,2567.0,2424.0,3249.0
60560,2567.0,2424.0,3249.0
60561,2567.0,2424.0,3249.0
60562,2567.0,2424.0,3249.0
60563,4722.0,2424.0,3249.0
60564,4722.0,2424.0,3249.0
60565,4722.0,2424.0,3249.0
60566,4722.0,2424.0,3249.0
60567,4722.0,2424.0,3249.0
60568,4722.0,1013.0,3249.0
60569,4722.0,1013.0,3249.0
60570,4722.0,1189.0,3249.0
60571,2500.0,1189.0,3249.0
60572,3038.0,1189.0,3249.0
60573,3038.0,1189.0,3249.0
60574,3038.0,1189.0,3249.0
60575,2971.0,1189.0,3249.0
60576,2971.0,1189.0,3249.0
60577,2971.0,1189.0,3249.0
60578,2971.0,1189.0,3249.0
60579,2971.0,1189.0,3249.0
60580,2971.0,1189.0,3249.0
60581,1489.0,1189.0,3249.0
60582,2424.0,1189.0,3249.0
60583,2424.0,1189.0,3249.0
60584,2424.0,1189.0,3249.0
60585,2424.0,920.0,3249.0
60586,2424.0,920.0,3249.0
60587,2424.0,920.0,3249.0
60588,2424.0,920.0,3249.0
60589,2424.0,920.0,3249.0
60590,2424.0,920.0,3249.0
60591,2424.0,920.0,3249.0
60592,2424.0,920.0,4643.0
60593,2424.0,920.0,4643.0
60594,2424.0,920.0,2317.0
60595,2424.0,920.0,2317.0
60596,2424.0,1119.0,2317.0
60597,2424.0,1119.0,2317.0
60598,2424.0,1262.0,2317.0
60599,2424.0,1262.0,2317.0
60600,2445.0,1262.0,2317.0
60601,3324.0,1262.0,2317.0
60602,3324.0,1262.0,2317.0
60603,3324.0,1262.0,2317.0
60604,3324.0,1262.0,2317.0
60605,3324.0,1262.0,2317.0
60606,3324.0,1262.0,2317.0
60607,3324.0,1262.0,2317.0
60608,3324.0,1262.0,2317.0
60609,3324.0,1262.0,2317.0
60610,3324.0,1262.0,2317.0
60611,3000.0,1262.0,2317.0
60612,2616.0,1262.0,2317.0
60613,2616.0,1262.0,2317.0
60614,2616.0,1262.0,2317.0
60615,2616.0,1262.0,2317.0
60616,2616.0,1262.0,2317.0
60617,2616.0,1262.0,2317.0
60618,2.0,1262.0,2317.0
60619,2616.0,1262.0,2317.0
60620,2616.0,1262.0,2317.0
60621,2616.0,1262.0,2317.0
60622,2432.0,1262.0,2317.0
60623,2432.0,1262.0,2317.0
60624,965.0,1262.0,2388.0
60625,965.0,1262.0,1447.0
60626,965.0,1262.0,1447.0
60627,965.0,1262.0,1447.0
60628,965.0,1262.0,1447.0
60629,965.0,869.0,1447.0
60630,965.0,869.0,1447.0
60631,965.0,869.0,1447.0
60632,965.0,869.0,1447.0
60633,965.0,869.0,1447.0
60634,965.0,869.0,1447.0
60635,965.0,869.0,1447.0
60636,965.0,869.0,1447.0
60637,965.0,869.0,3839.0
60638,965.0,869.0,3839.0
60639,965.0,869.0,3839.0
60640,965.0,869.0,3839.0
60641,965.0,1429.0,3839.0
62183,1532.0,1413.0,2063.0
62184,1532.0,1413.0,2063.0
62185,1532.0,1413.0,3092.0
62186,1532.0,1413.0,3092.0
62187,1532.0,1413.0,3044.0
62188,1532.0,453.0,3044.0
62189,1532.0,453.0,3044.0
62190,1532.0,453.0,3044.0
62191,1532.0,453.0,2058.0
62192,1532.0,453.0,2058.0
62193,1532.0,453.0,1808.0
62194,1532.0,453.0,1808.0
62195,1532.0,453.0,1808.0
62196,1532.0,453.0,1808.0
62197,1532.0,453.0,1808.0
62198,1532.0,453.0,1808.0
62199,1532.0,453.0,1808.0
62200,1532.0,453.0,1808.0
62201,1532.0,453.0,1808.0
62202,1532.0,453.0,4376.0
62203,2068.0,453.0,4376.0
62204,2656.0,453.0,4376.0
62205,2656.0,697.0,4376.0
62206,2656.0,697.0,4376.0
62207,2802.0,697.0,4376.0
62208,2802.0,697.0,4376.0
62209,2802.0,1206.0,2277.0
62210,2802.0,1206.0,2277.0
62211,2802.0,477.0,2277.0
62212,2802.0,477.0,2277.0
62213,2802.0,477.0,2277.0
62214,2802.0,477.0,2277.0
62215,2802.0,477.0,2277.0
62216,2802.0,477.0,2277.0
62217,2802.0,477.0,2904.0
62218,2802.0,849.0,4070.0
62219,2802.0,849.0,4070.0
62220,10.0,849.0,4070.0
62221,2802.0,350.0,1885.0
62222,84.0,350.0,4158.0
62223,22084.0,350.0,4158.0
62224,2084.0,350.0,4158.0
62225,1873.0,350.0,4158.0
62226,1873.0,350.0,3439.0
62227,1873.0,350.0,3439.0
62228,1873.0,350.0,3439.0
62229,1873.0,350.0,3439.0
62230,1535.0,350.0,3439.0
62231,1535.0,350.0,3439.0
62232,1017.0,350.0,3439.0
62233,1017.0,350.0,3439.0
62234,1017.0,350.0,3439.0
62235,1017.0,350.0,3056.0
62236,1017.0,1727.0,3056.0
62237,1017.0,1727.0,3056.0
62238,1017.0,1727.0,3056.0
62239,1017.0,1727.0,3056.0
62240,1017.0,1727.0,3056.0
62241,1017.0,1727.0,3056.0
62242,1017.0,1727.0,1587.0
62243,1017.0,1322.0,1587.0
62244,1017.0,1410.0,1587.0
62245,2058.0,1410.0,1587.0
62246,2058.0,1410.0,1587.0
62247,2058.0,1410.0,1587.0
62248,2058.0,1410.0,1587.0
62249,2058.0,1410.0,2601.0
62250,2058.0,1410.0,2601.0
62251,2058.0,1410.0,2601.0
62252,2058.0,1783.0,2601.0
62253,2058.0,1783.0,2601.0
62254,2058.0,1957.0,2601.0
62255,2058.0,1957.0,2601.0
62256,2058.0,1957.0,2601.0
62257,2058.0,1957.0,2601.0
62258,2058.0,1957.0,2601.0
62259,2058.0,1957.0,2601.0
62260,2058.0,1957.0,2601.0
62261,2058.0,1957.0,2601.0
62262,2058.0,1957.0,2601.0
62263,2058.0,1957.0,2601.0
62264,20845.0,1957.0,2601.0
62265,1845.0,1957.0,2601.0
62266,1845.0,1957.0,2601.0
62267,1845.0,1957.0,2601.0
62268,3815.0,1957.0,2601.0
62269,3815.0,1957.0,2601.0
62270,3815.0,1957.0,2601.0
62271,3815.0,1957.0,2601.0
62272,3815.0,1957.0,1814.0
62273,3815.0,1957.0,1814.0
62274,3815.0,1957.0,1814.0
62275,3815.0,1957.0,1814.0
62276,3815.0,1957.0,2434.0
62277,3815.0,1957.0,2434.0
62278,3815.0,1957.0,2434.0
62279,1954.0,1957.0,4463.0
62280,1954.0,1957.0,4463.0
62281,1954.0,1957.0,4463.0
62282,1954.0,1957.0,4463.0
62283,1954.0,1957.0,4463.0
62284,1954.0,1335.0,4463.0
62285,1954.0,1335.0,4463.0
62286,1954.0,1335.0,4463.0
62287,1954.0,1335.0,4463.0
62288,1954.0,1335.0,4463.0
62289,1954.0,1335.0,4463.0
62290,1954.0,1335.0,1970.0
62291,1954.0,1335.0,1970.0
62292,1954.0,1335.0,1970.0
62293,1954.0,1335.0,1970.0
62294,1954.0,1335.0,1970.0
62295,1954.0,1335.0,3813.0
62296,1954.0,1335.0,3813.0
62297,1954.0,1335.0,3813.0
62298,1954.0,1335.0,3813.0
62299,1954.0,1335.0,3481.0
62300,1954.0,1335.0,3481.0
62301,1954.0,1335.0,3481.0
62302,1954.0,1335.0,3481.0
62303,1954.0,1335.0,3481.0
62304,1954.0,1335.0,1585.0
62305,1954.0,1335.0,1585.0
62306,1954.0,1335.0,1578.0
62307,1954.0,1335.0,1578.0
62308,1954.0,1335.0,3781.0
62309,1954.0,1335.0,3781.0
62310,1954.0,1335.0,3717.0
62311,1954.0,1335.0,3717.0
62312,1954.0,1335.0,3717.0
62313,1954.0,1335.0,3717.0
62314,1954.0,1335.0,3717.0
62315,1954.0,1335.0,3717.0
62316,1954.0,1335.0,3717.0
64152,230.0,709.0,1088.0
64153,230.0,709.0,1088.0
64154,230.0,670.0,1088.0
64155,233.0,670.0,1088.0
64156,233.0,670.0,1088.0
64157,233.0,480.0,1088.0
64158,233.0,480.0,1088.0
64159,233.0,480.0,1088.0
64160,233.0,480.0,1746.0
64161,145.0,480.0,915.0
64162,145.0,480.0,915.0
64163,145.0,480.0,760.0
64164,145.0,480.0,760.0
64165,145.0,480.0,760.0
64166,145.0,480.0,1939.0
64167,145.0,480.0,757.0
64168,145.0,480.0,704.0
64169,145.0,480.0,1328.0
64170,145.0,480.0,1328.0
64171,145.0,480.0,703.0
64172,145.0,480.0,703.0
64173,145.0,480.0,703.0
64174,145.0,480.0,703.0
64175,145.0,897.0,703.0
64176,145.0,897.0,703.0
64177,145.0,897.0,703.0
64178,145.0,938.0,703.0
64179,145.0,777.0,703.0
64180,145.0,777.0,703.0
64181,145.0,698.0,703.0
64182,145.0,996.0,703.0
64183,145.0,996.0,703.0
64184,145.0,996.0,703.0
64185,145.0,996.0,703.0
64186,174.0,996.0,703.0
64187,174.0,996.0,703.0
64188,174.0,996.0,703.0
64189,174.0,996.0,1004.0
64190,174.0,996.0,1004.0
64191,174.0,996.0,1004.0
64192,174.0,1055.0,927.0
64193,174.0,1055.0,927.0
64194,174.0,1055.0,927.0
64195,174.0,1055.0,927.0
64196,174.0,669.0,927.0
64197,174.0,1513.0,927.0
64198,174.0,1513.0,1511.0
64199,174.0,1513.0,998.0
64200,174.0,524.0,998.0
64201,174.0,524.0,998.0
64202,174.0,524.0,998.0
64203,174.0,524.0,998.0
64204,174.0,880.0,998.0
64205,174.0,880.0,998.0
64206,632.0,880.0,998.0
64207,632.0,880.0,998.0
64208,632.0,880.0,998.0
64209,632.0,880.0,998.0
64210,632.0,880.0,998.0
64211,632.0,880.0,691.0
64212,632.0,880.0,691.0
64213,632.0,880.0,691.0
64214,632.0,880.0,691.0
64215,632.0,880.0,691.0
64216,632.0,880.0,691.0
64217,632.0,880.0,691.0
64218,490.0,880.0,691.0
64219,333.0,880.0,691.0
64220,333.0,881.0,691.0
64221,333.0,881.0,691.0
64222,333.0,881.0,691.0
64223,333.0,881.0,691.0
64224,333.0,881.0,691.0
64225,333.0,881.0,1242.0
64226,251.0,881.0,947.0
64227,251.0,881.0,1764.0
64228,251.0,881.0,830.0
64229,251.0,881.0,830.0
64230,251.0,881.0,830.0
64231,251.0,881.0,830.0
64232,251.0,881.0,830.0
64233,251.0,881.0,830.0
64234,251.0,881.0,830.0
64235,251.0,881.0,830.0
64236,251.0,881.0,830.0
64237,740.0,881.0,830.0
64238,740.0,881.0,830.0
64239,740.0,881.0,830.0
64240,740.0,881.0,830.0
64241,740.0,881.0,830.0
64242,740.0,881.0,830.0
64243,740.0,1818.0,830.0
64244,740.0,1818.0,830.0
64245,740.0,1818.0,830.0
64246,740.0,1818.0,1144.0
64247,740.0,1818.0,1144.0
64248,740.0,1818.0,1144.0
64249,740.0,1818.0,1144.0
64250,740.0,863.0,1144.0
64251,740.0,863.0,1144.0
64252,642.0,863.0,975.0
64253,642.0,863.0,975.0
64254,642.0,599.0,975.0
64255,642.0,599.0,975.0
64256,642.0,599.0,975.0
64257,642.0,599.0,1238.0
64258,642.0,599.0,1238.0
64259,642.0,599.0,1238.0
64260,642.0,599.0,1238.0
64261,642.0,599.0,1828.0
64262,642.0,599.0,1373.0
64263,642.0,599.0,1373.0
64264,642.0,599.0,1373.0
64265,642.0,599.0,1373.0
64266,642.0,1118.0,1373.0
64267,642.0,1349.0,1373.0
64268,642.0,1349.0,1373.0
64269,642.0,1349.0,1297.0
64270,402.0,1349.0,1297.0
64271,402.0,1349.0,1297.0
64272,402.0,1349.0,1297.0
64273,402.0,1349.0,1666.0
64274,402.0,1349.0,1666.0
64275,402.0,1349.0,1666.0
64276,402.0,1349.0,1666.0
64277,402.0,2058.0,1666.0
64278,402.0,2058.0,1666.0
64279,402.0,1027.0,1666.0
64280,402.0,1027.0,1666.0
64281,402.0,672.0,1666.0
64282,402.0,672.0,1666.0
64283,402.0,672.0,1666.0
64284,402.0,944.0,1666.0
64285,402.0,944.0,1666.0
64286,402.0,944.0,1666.0
64287,402.0,944.0,1666.0
64288,402.0,795.0,1666.0
64289,402.0,1021.0,1666.0
64290,402.0,585.0,1666.0
64291,402.0,585.0,1666.0
64292,402.0,289.0,1666.0
64293,402.0,289.0,1666.0
64294,402.0,289.0,1666.0
64295,402.0,289.0,1666.0
64296,168.0,289.0,1666.0
64297,168.0,289.0,1666.0
64298,168.0,289.0,1666.0
64299,168.0,289.0,1666.0
64300,137.0,289.0,1666.0
64301,258.0,289.0,1666.0
