timestamp,emg1,emg2,emg3
557,2271.0,4073.0,4396.0
558,2271.0,4073.0,4396.0
559,5109.0,4073.0,5359.0
560,5109.0,4682.0,2328.0
561,5109.0,4682.0,2328.0
562,5109.0,3969.0,2328.0
563,50.0,3969.0,2328.0
564,9.0,3969.0,2195.0
565,5109.0,3969.0,2860.0
566,5109.0,3969.0,2532.0
567,5109.0,3969.0,2532.0
568,5109.0,3969.0,2532.0
569,3862.0,3969.0,2532.0
570,3862.0,3969.0,2532.0
571,3862.0,3969.0,2532.0
572,3862.0,3969.0,2532.0
573,3862.0,3969.0,2532.0
574,3862.0,3969.0,2492.0
575,3862.0,3969.0,1819.0
576,3862.0,3969.0,1819.0
577,3862.0,3969.0,3079.0
578,3862.0,3969.0,3079.0
579,3862.0,3969.0,3079.0
580,3862.0,3969.0,3079.0
581,3862.0,3730.0,3079.0
582,3862.0,3730.0,3079.0
583,3862.0,3730.0,3079.0
584,3862.0,3730.0,3079.0
585,3862.0,3730.0,3079.0
586,3862.0,3066.0,3079.0
587,3862.0,3066.0,3079.0
588,3862.0,3066.0,3079.0
589,3862.0,3066.0,3079.0
590,3862.0,3066.0,3079.0
591,3862.0,3066.0,3079.0
592,3862.0,3066.0,3079.0
593,3862.0,4235.0,3079.0
594,3862.0,4235.0,3079.0
595,3862.0,3146.0,4751.0
596,3862.0,3146.0,4751.0
597,3862.0,3146.0,4751.0
598,3862.0,3146.0,4751.0
599,3862.0,3146.0,4751.0
600,3862.0,3146.0,2430.0
601,3862.0,3146.0,2430.0
602,3862.0,3146.0,2430.0
603,3862.0,3146.0,2430.0
604,3862.0,3146.0,2430.0
605,3862.0,3089.0,2430.0
606,3862.0,3089.0,2430.0
607,3862.0,3089.0,2430.0
608,3862.0,3089.0,2430.0
609,3862.0,3089.0,2430.0
610,3862.0,3089.0,2430.0
611,3862.0,3089.0,2430.0
612,3862.0,3089.0,2430.0
613,3862.0,3089.0,3353.0
614,3862.0,3089.0,3353.0
615,3862.0,2606.0,3174.0
616,3862.0,1489.0,3174.0
617,3862.0,1489.0,3174.0
618,3862.0,1489.0,3174.0
619,3862.0,3243.0,3174.0
620,3862.0,3243.0,3174.0
621,3862.0,3243.0,3174.0
622,3862.0,3243.0,3174.0
623,3862.0,1327.0,3174.0
624,3862.0,1327.0,3174.0
625,3862.0,1327.0,1707.0
626,7258.0,1327.0,1707.0
627,7258.0,1327.0,1707.0
628,7258.0,2058.0,1707.0
629,7258.0,2058.0,1707.0
630,7258.0,2058.0,1707.0
631,7258.0,2058.0,1707.0
632,7258.0,2058.0,1707.0
633,7258.0,2058.0,1707.0
634,7258.0,2058.0,4090.0
635,7258.0,2058.0,3012.0
636,7258.0,2058.0,2404.0
637,7258.0,2058.0,4074.0
638,7258.0,2058.0,4074.0
639,7258.0,2058.0,4078.0
640,7258.0,2058.0,4582.0
641,7258.0,2058.0,3325.0
642,7258.0,2058.0,2997.0
643,7258.0,2058.0,4003.0
644,7258.0,2058.0,5738.0
645,7258.0,2058.0,5738.0
646,7258.0,2058.0,5738.0
647,7258.0,2058.0,3283.0
648,7258.0,2058.0,2468.0
649,7258.0,2058.0,2468.0
650,7258.0,2058.0,2468.0
651,7258.0,2058.0,1614.0
652,7258.0,2058.0,3473.0
653,7258.0,2058.0,3473.0
654,7258.0,2058.0,3473.0
655,7258.0,2058.0,3473.0
656,7258.0,2058.0,3101.0
657,7258.0,2058.0,3101.0
658,7258.0,2058.0,2747.0
659,7258.0,2058.0,2747.0
660,7258.0,2058.0,2747.0
661,7258.0,2058.0,2747.0
662,7258.0,2875.0,2747.0
663,7258.0,2875.0,2747.0
664,7258.0,2875.0,2747.0
665,72258.0,1508.0,2747.0
666,7258.0,1508.0,2747.0
667,7258.0,2872.0,2747.0
668,7258.0,2872.0,2747.0
669,7258.0,932.0,2747.0
670,7258.0,932.0,2747.0
671,7258.0,932.0,2537.0
672,7258.0,810.0,2537.0
673,7258.0,810.0,2537.0
674,7258.0,3984.0,2537.0
675,7258.0,3984.0,2537.0
676,7258.0,1405.0,2537.0
677,7258.0,1405.0,2537.0
678,7258.0,1405.0,2537.0
679,7258.0,1405.0,2537.0
680,7258.0,1405.0,2537.0
681,7258.0,1405.0,4149.0
682,7258.0,1405.0,4149.0
683,7258.0,1405.0,4149.0
684,7258.0,1552.0,4149.0
685,7258.0,1552.0,4149.0
686,7258.0,892.0,4149.0
687,7258.0,892.0,4149.0
2439,6052.0,1941.0,2094.0
2440,6052.0,1941.0,2094.0
2441,3321.0,1941.0,2094.0
2442,4893.0,1941.0,2094.0
2443,4893.0,1941.0,2094.0
2444,4725.0,1941.0,2094.0
2445,4167.0,1941.0,2094.0
2446,4167.0,1941.0,2094.0
2447,4167.0,1941.0,2094.0
2448,4167.0,1941.0,2094.0
2449,4167.0,1941.0,2094.0
2450,4167.0,1941.0,2094.0
2451,4863.0,1941.0,2094.0
2452,4863.0,1941.0,2094.0
2453,4462.0,1941.0,2094.0
2454,4462.0,1941.0,2094.0
2455,4462.0,1941.0,2094.0
2456,4462.0,1941.0,2094.0
2457,4854.0,1941.0,2094.0
2458,4.0,1941.0,2094.0
2459,48544.0,1941.0,2094.0
2460,4854.0,1941.0,2094.0
2461,4854.0,1941.0,2094.0
2462,6170.0,1941.0,2094.0
2463,6170.0,1941.0,2094.0
2464,6170.0,1941.0,2094.0
2465,6170.0,1941.0,4459.0
2466,5087.0,1941.0,3953.0
2467,5087.0,1941.0,3953.0
2468,5087.0,1941.0,4349.0
2469,5087.0,1941.0,4349.0
2470,3568.0,1941.0,5548.0
2471,3568.0,1941.0,2489.0
2472,3568.0,1941.0,2489.0
2473,3568.0,1941.0,2489.0
2474,7015.0,1941.0,1249.0
2475,7015.0,1941.0,1249.0
2476,7015.0,1941.0,2825.0
2477,7015.0,1941.0,2825.0
2478,7015.0,1941.0,2825.0
2479,7015.0,1941.0,2825.0
2480,7015.0,1941.0,3108.0
2481,7015.0,1941.0,3108.0
2482,7015.0,1941.0,3108.0
2483,7015.0,1941.0,3108.0
2484,7015.0,1941.0,3007.0
2485,7015.0,1941.0,3007.0
2486,7015.0,1941.0,3007.0
2487,7015.0,1941.0,3007.0
2488,7015.0,1941.0,3007.0
2489,7015.0,1941.0,3007.0
2490,7015.0,1941.0,3007.0
2491,7015.0,1941.0,3007.0
2492,7015.0,1941.0,3007.0
2493,7015.0,1941.0,3007.0
2494,7015.0,1941.0,2577.0
2495,7015.0,1941.0,2577.0
2496,7015.0,1941.0,1879.0
2497,7015.0,1941.0,1879.0
2498,7015.0,1941.0,1879.0
2499,9208.0,1941.0,1879.0
2500,6321.0,1941.0,1879.0
2501,6321.0,1941.0,1879.0
2502,6321.0,1941.0,1879.0
2503,4404.0,1941.0,1879.0
2504,4404.0,1941.0,2529.0
2505,4404.0,1941.0,2529.0
2506,4404.0,1941.0,2529.0
2507,4404.0,1941.0,2529.0
2508,4404.0,1941.0,2529.0
2509,4404.0,1941.0,4398.0
2510,4404.0,1941.0,4398.0
2511,4404.0,1941.0,4398.0
2512,4404.0,1941.0,4398.0
2513,4292.0,1941.0,4398.0
2514,4292.0,1941.0,4398.0
2515,3569.0,1941.0,4398.0
2516,3569.0,1941.0,4398.0
2517,3569.0,1941.0,4398.0
2518,3569.0,1941.0,5276.0
2519,3569.0,1941.0,5276.0
2520,3569.0,1941.0,5276.0
2521,48503569.0,1941.0,5276.0
2522,3569.0,1941.0,5276.0
2523,3569.0,1941.0,5276.0
2524,3569.0,1941.0,5276.0
2525,3569.0,1941.0,5276.0
2526,3569.0,1941.0,5276.0
2527,3569.0,1941.0,5276.0
2528,3569.0,1941.0,5276.0
2529,3569.0,1941.0,5276.0
2530,3569.0,1941.0,5276.0
2531,3569.0,1941.0,5276.0
2532,3569.0,1941.0,5276.0
2533,3569.0,1941.0,5276.0
2534,3569.0,1941.0,5276.0
2535,3569.0,1941.0,5276.0
2536,3569.0,1941.0,5276.0
2537,3569.0,1941.0,5276.0
2538,3569.0,1941.0,5276.0
2539,1719.0,1941.0,5276.0
2540,1719.0,1941.0,5276.0
2541,1719.0,1941.0,5717.0
2542,1719.0,1941.0,5717.0
2543,1719.0,1941.0,2565.0
2544,1719.0,1941.0,1858.0
2545,1719.0,1941.0,1858.0
2546,1719.0,1941.0,1858.0
2547,1719.0,1941.0,1858.0
2548,356919.0,1941.0,1858.0
2549,17719.0,1941.0,2978.0
2550,1719.0,1941.0,2978.0
2551,1719.0,1941.0,3920.0
2552,1719.0,1941.0,3920.0
2553,1719.0,1941.0,3920.0
2554,4008.0,1941.0,3920.0
2555,4008.0,1941.0,3920.0
2556,4008.0,1941.0,3920.0
2557,4008.0,1941.0,3380.0
2558,4008.0,1941.0,5723.0
2559,4008.0,1941.0,5723.0
2560,4008.0,1941.0,4129.0
2561,4008.0,1941.0,4129.0
2562,3772.0,1941.0,4129.0
2563,7626.0,1941.0,4129.0
2564,7626.0,1941.0,4129.0
2565,7626.0,1941.0,4129.0
2566,7626.0,1941.0,4129.0
2567,7626.0,1941.0,2346.0
2568,7626.0,1941.0,2346.0
2569,7626.0,1941.0,2346.0
2570,7626.0,1941.0,2346.0
2571,7626.0,1941.0,4662.0
2572,7626.0,1941.0,6535.0
2573,7626.0,1941.0,6535.0
3644,1264.0,41364.0,4135.0
3645,419.0,58219.0,5820.0
3646,396.0,396.0,5820.0
3647,635.0,25835.0,2588.0
4253,654.0,31134.0,3113.0
4254,1202.0,312.0,3113.0
4255,1341.0,3113068.0,3113.0
5431,1149.0,564.0,3537.0
5432,1149.0,564.0,3537.0
5433,1149.0,564.0,3537.0
5434,1961.0,564.0,3537.0
5435,1961.0,564.0,3537.0
5436,1961.0,564.0,3537.0
5437,1961.0,564.0,3537.0
5438,1961.0,564.0,3537.0
5439,1961.0,564.0,3537.0
5440,1961.0,564.0,3537.0
5441,1961.0,564.0,3537.0
5442,1961.0,564.0,3537.0
5443,1961.0,564.0,3537.0
5444,1961.0,564.0,3537.0
5445,1961.0,765.0,3537.0
5446,2005.0,765.0,3537.0
5447,2005.0,765.0,3537.0
5448,2005.0,765.0,3537.0
5449,15.0,680.0,3537.0
5450,20005.0,680.0,3537.0
5451,2005.0,680.0,3537.0
5452,2005.0,680.0,3537.0
5453,2005.0,680.0,3537.0
5454,2005.0,680.0,3537.0
5455,2005.0,680.0,3537.0
5456,2005.0,680.0,3537.0
5457,2005.0,680.0,3537.0
5458,2005.0,680.0,3537.0
5459,2005.0,680.0,3537.0
5460,2005.0,680.0,3537.0
5461,2005.0,680.0,3537.0
5462,1457.0,680.0,3537.0
5463,1457.0,680.0,3537.0
5464,1457.0,680.0,3537.0
5465,1457.0,1210.0,3537.0
5466,1457.0,1210.0,3537.0
5467,1457.0,2023.0,3537.0
5468,1457.0,625.0,3537.0
5469,1457.0,705.0,3537.0
5470,1457.0,705.0,3537.0
5471,1457.0,705.0,3537.0
5472,1457.0,705.0,3537.0
5473,1457.0,645.0,3537.0
5474,1457.0,645.0,3537.0
5475,1457.0,645.0,3537.0
5476,1457.0,645.0,3537.0
5477,1090.0,645.0,3537.0
5478,1090.0,645.0,3537.0
5479,1090.0,645.0,3537.0
5480,1090.0,645.0,3537.0
5481,1090.0,645.0,3537.0
5482,1090.0,645.0,3537.0
5483,1090.0,645.0,2482.0
5484,1090.0,645.0,2482.0
5485,1090.0,645.0,2482.0
5486,1090.0,645.0,2482.0
5487,1090.0,645.0,2482.0
5488,1018.0,645.0,2482.0
5489,1018.0,645.0,2482.0
5490,1297.0,608.0,2482.0
5491,1297.0,608.0,2482.0
5492,1297.0,608.0,2482.0
5493,1297.0,608.0,2482.0
5494,1297.0,608.0,2482.0
5495,1297.0,608.0,2482.0
5496,1297.0,933.0,2482.0
5497,1297.0,933.0,5689.0
5498,1297.0,933.0,5689.0
5499,1710.0,933.0,5689.0
5500,1710.0,933.0,5689.0
5501,1710.0,933.0,5689.0
5502,1710.0,933.0,5689.0
5503,1710.0,933.0,5689.0
5504,1710.0,933.0,5689.0
5505,1710.0,825.0,5689.0
5506,1710.0,825.0,5689.0
5507,1710.0,825.0,5689.0
5508,1710.0,863.0,5689.0
5509,1710.0,863.0,5689.0
5510,1710.0,863.0,5689.0
5511,2465.0,863.0,5689.0
5512,2465.0,863.0,5689.0
5513,2465.0,863.0,5689.0
5514,2465.0,863.0,5689.0
5515,2254.0,863.0,3507.0
5516,2254.0,863.0,3507.0
5517,2254.0,863.0,3507.0
5518,2254.0,863.0,3507.0
5519,2254.0,863.0,3507.0
5520,2254.0,863.0,3507.0
5521,2254.0,863.0,3507.0
5522,2254.0,984.0,3507.0
5523,2254.0,984.0,3507.0
5524,2254.0,984.0,3507.0
5525,2637.0,984.0,3507.0
5526,2637.0,984.0,3507.0
5527,2637.0,984.0,3507.0
5528,2637.0,984.0,3507.0
5529,2637.0,984.0,3507.0
5530,2637.0,849.0,3507.0
5531,2637.0,849.0,5524.0
5532,2637.0,849.0,5524.0
5533,2637.0,849.0,4912.0
5534,2637.0,849.0,4912.0
5535,2477.0,849.0,4912.0
5536,2477.0,849.0,3078.0
5537,2477.0,849.0,3078.0
5538,2477.0,849.0,3078.0
5539,2477.0,849.0,3078.0
5540,2477.0,849.0,3078.0
5541,2477.0,849.0,3078.0
5542,2477.0,849.0,3078.0
5543,2477.0,849.0,3078.0
5544,2477.0,849.0,3078.0
5545,2085.0,849.0,3078.0
5546,2085.0,880.0,1987.0
5547,2085.0,880.0,1987.0
5548,2085.0,880.0,1987.0
5549,2085.0,880.0,1987.0
5550,2085.0,880.0,1987.0
5551,1576.0,880.0,4373.0
5552,1576.0,880.0,4373.0
5553,1576.0,880.0,4373.0
5554,1773.0,880.0,4373.0
5555,1773.0,880.0,4373.0
5556,1773.0,1540.0,3443.0
5557,1773.0,901.0,3443.0
5558,1773.0,901.0,3708.0
5559,1773.0,901.0,3708.0
5560,1773.0,901.0,8218.0
5561,1773.0,901.0,8218.0
5562,1773.0,1212.0,8218.0
5563,1773.0,1212.0,8218.0
5564,1773.0,1212.0,8218.0
5565,1249.0,452.0,8218.0
5566,1249.0,452.0,3978.0
5567,1249.0,452.0,3978.0
5568,1261.0,452.0,3978.0
5569,1261.0,452.0,3978.0
5570,1261.0,452.0,3978.0
5571,1261.0,452.0,3978.0
5572,1265.0,452.0,3978.0
5573,1265.0,452.0,3978.0
5574,2185.0,452.0,3978.0
5575,2768.0,452.0,3978.0
7314,767.0,1277.0,3449.0
7315,767.0,1277.0,3449.0
7316,767.0,1277.0,3449.0
7317,767.0,1277.0,3449.0
7318,767.0,1277.0,3449.0
7319,767.0,1277.0,3449.0
7320,767.0,1063.0,3449.0
7321,767.0,1063.0,3449.0
7322,767.0,1063.0,3449.0
7323,767.0,1063.0,3449.0
7324,767.0,1063.0,3449.0
7325,767.0,1063.0,3449.0
7326,639.0,1063.0,3449.0
7327,639.0,1063.0,3449.0
7328,639.0,1063.0,3449.0
7329,639.0,1063.0,3449.0
7330,639.0,1063.0,3449.0
7331,639.0,1063.0,3449.0
7332,639.0,1063.0,3449.0
7333,639.0,1063.0,5567.0
7334,639.0,1063.0,5567.0
7335,824.0,1063.0,5567.0
7336,824.0,1063.0,5567.0
7337,420.0,1063.0,5567.0
7338,420.0,1063.0,5567.0
7339,1220.0,1063.0,5567.0
7340,474.0,1063.0,5567.0
7341,616.0,1063.0,5567.0
7342,616.0,1063.0,5567.0
7343,968.0,1063.0,5567.0
7344,968.0,1063.0,5567.0
7345,968.0,1063.0,5567.0
7346,968.0,1063.0,5567.0
7347,978.0,1063.0,5567.0
7348,978.0,1063.0,5567.0
7349,978.0,1079.0,5567.0
7350,978.0,1079.0,5567.0
7351,978.0,1079.0,4023.0
7352,594.0,1079.0,4023.0
7353,594.0,1079.0,4023.0
7354,185.0,1079.0,4023.0
7355,185.0,1079.0,4023.0
7356,185.0,1079.0,4023.0
7357,185.0,1079.0,2552.0
7358,185.0,1079.0,2552.0
7359,185.0,1079.0,2552.0
7360,497.0,587.0,2552.0
7361,497.0,587.0,2552.0
7362,497.0,587.0,2802.0
7363,497.0,587.0,2802.0
7364,497.0,587.0,2802.0
7365,497.0,587.0,4866.0
7366,497.0,587.0,4866.0
7367,497.0,587.0,4866.0
7368,497.0,587.0,2552.0
7369,497.0,587.0,2552.0
7370,497.0,1037.0,2552.0
7371,497.0,1037.0,2552.0
7372,497.0,1037.0,2552.0
7373,497.0,1037.0,2552.0
7374,497.0,1037.0,4531.0
7375,497.0,1037.0,3710.0
7376,497.0,1037.0,3710.0
7377,693.0,1037.0,3466.0
7378,693.0,1037.0,3466.0
7379,693.0,1037.0,1686.0
7380,693.0,1037.0,1686.0
7381,693.0,1037.0,5955.0
7382,693.0,1037.0,5955.0
7383,530.0,1037.0,5955.0
7384,530.0,1037.0,5955.0
7385,314.0,1037.0,5955.0
7386,460.0,1037.0,5955.0
7387,460.0,1037.0,5955.0
7388,460.0,1037.0,5955.0
7389,460.0,1037.0,5955.0
7390,460.0,1194.0,5955.0
7391,460.0,1194.0,5955.0
7392,460.0,1194.0,5955.0
7393,460.0,1194.0,2571.0
7394,460.0,1194.0,2571.0
7395,460.0,1194.0,2571.0
7396,460.0,1194.0,3464.0
7397,460.0,1194.0,6563.0
7398,460.0,1194.0,6563.0
7399,460.0,1194.0,6563.0
7400,460.0,1194.0,6563.0
7401,460.0,1194.0,2930.0
7402,460.0,1194.0,2930.0
7403,460.0,824.0,2930.0
7404,460.0,824.0,2930.0
7405,460.0,824.0,3139.0
7406,432.0,964.0,3139.0
7407,432.0,964.0,3139.0
7408,517.0,964.0,3139.0
7409,423.0,964.0,3139.0
7410,297.0,964.0,2986.0
7411,297.0,964.0,2986.0
7412,297.0,964.0,1521.0
7413,297.0,964.0,1521.0
7414,257.0,964.0,1521.0
7415,257.0,964.0,1521.0
7416,257.0,2564.0,2834.0
7417,257.0,2564.0,2834.0
7418,257.0,2564.0,3919.0
7419,544.0,2564.0,3919.0
7420,544.0,2564.0,2705.0
7421,544.0,2564.0,2705.0
7422,522.0,2564.0,2705.0
7423,522.0,2564.0,2705.0
7424,522.0,2564.0,2705.0
7425,522.0,2564.0,2705.0
7426,522.0,2564.0,2705.0
7427,522.0,2564.0,2705.0
7428,522.0,866.0,2705.0
7429,522.0,866.0,2705.0
7430,522.0,866.0,2705.0
7431,522.0,866.0,2705.0
7432,522.0,866.0,2705.0
7433,350.0,866.0,2705.0
7434,350.0,866.0,2705.0
7435,350.0,866.0,2705.0
7436,350.0,866.0,2705.0
7437,325.0,866.0,2705.0
7438,325.0,866.0,2705.0
7439,325.0,866.0,2705.0
7440,325.0,866.0,2705.0
7441,325.0,1215.0,2705.0
9044,394.0,296.0,510.0
9045,394.0,424.0,510.0
9046,394.0,254.0,510.0
9047,394.0,160.0,510.0
9048,394.0,160.0,510.0
9049,411.0,160.0,510.0
9050,411.0,160.0,510.0
9051,411.0,160.0,510.0
9052,411.0,160.0,510.0
9053,411.0,160.0,1455.0
9054,411.0,160.0,1455.0
9055,311.0,264.0,1455.0
9056,311.0,162.0,1455.0
9057,11.0,115.0,1455.0
9058,311.0,118.0,1455.0
9059,311.0,118.0,333.0
9060,311.0,118.0,333.0
9061,3311.0,204.0,333.0
9062,558.0,610.0,333.0
9063,434.0,610.0,333.0
9064,110.0,249.0,333.0
9065,110.0,249.0,333.0
9066,110.0,370.0,333.0
9067,110.0,370.0,333.0
9068,110.0,370.0,333.0
9069,110.0,370.0,333.0
9070,110.0,370.0,1094.0
9071,110.0,370.0,1250.0
9072,110.0,370.0,1250.0
9073,110.0,370.0,1250.0
9074,110.0,217.0,1250.0
9075,110.0,217.0,1250.0
9076,110.0,217.0,1250.0
9077,110.0,588.0,1250.0
9078,630.0,588.0,1250.0
9079,630.0,588.0,1052.0
9080,630.0,588.0,1052.0
9081,630.0,588.0,1052.0
9082,630.0,588.0,1052.0
9083,335.0,588.0,1052.0
9084,208.0,588.0,1052.0
9085,208.0,588.0,847.0
9086,2008.0,588.0,847.0
9087,208.0,195.0,1172.0
9088,208.0,168.0,1172.0
9089,208.0,168.0,1308.0
9090,208.0,168.0,1308.0
9091,208.0,209.0,1308.0
9092,208.0,321.0,1164.0
9093,208.0,321.0,1164.0
9094,208.0,321.0,1164.0
9095,441.0,321.0,1164.0
9096,441.0,568.0,1164.0
9097,397.0,568.0,1164.0
9098,397.0,568.0,1164.0
9099,397.0,568.0,1164.0
9100,397.0,568.0,1164.0
9101,397.0,568.0,1164.0
9102,644.0,568.0,1164.0
9103,644.0,568.0,1164.0
9104,644.0,568.0,1300.0
9105,253.0,568.0,1300.0
9106,253.0,568.0,1300.0
9107,342.0,568.0,1300.0
9108,342.0,568.0,1300.0
9109,342.0,568.0,1300.0
9110,517.0,568.0,1300.0
9111,517.0,568.0,1300.0
9112,517.0,211.0,1300.0
9113,517.0,211.0,1300.0
9114,285.0,211.0,1300.0
9115,285.0,211.0,1300.0
9116,285.0,211.0,1300.0
9117,285.0,211.0,1300.0
9118,285.0,211.0,1300.0
9119,285.0,211.0,795.0
9120,285.0,211.0,795.0
9121,285.0,211.0,795.0
9122,285.0,281.0,795.0
9123,285.0,281.0,795.0
9124,597.0,281.0,795.0
9125,597.0,281.0,795.0
9126,597.0,281.0,795.0
9127,597.0,281.0,795.0
9128,597.0,281.0,1187.0
9129,597.0,281.0,1046.0
9130,597.0,281.0,651.0
9131,597.0,281.0,651.0
9132,597.0,281.0,651.0
9133,597.0,281.0,975.0
9134,597.0,281.0,975.0
9135,597.0,281.0,1325.0
9136,597.0,281.0,1325.0
9137,597.0,281.0,1325.0
9138,597.0,281.0,1325.0
9139,597.0,239.0,1325.0
9140,597.0,130.0,1325.0
9141,201.0,427.0,1325.0
9142,201.0,427.0,1325.0
9143,339.0,427.0,1325.0
9144,342.0,427.0,1325.0
9145,562.0,427.0,1325.0
9146,692.0,227.0,1325.0
9147,692.0,227.0,699.0
9148,692.0,227.0,699.0
9149,692.0,227.0,699.0
9150,692.0,227.0,699.0
9151,692.0,227.0,699.0
9152,692.0,227.0,699.0
9153,692.0,227.0,699.0
9154,692.0,227.0,699.0
9155,692.0,227.0,699.0
9156,536.0,227.0,699.0
9157,536.0,227.0,699.0
9158,536.0,227.0,699.0
9159,536.0,227.0,699.0
9160,536.0,227.0,699.0
9161,282.0,227.0,699.0
9162,557.0,227.0,1237.0
9163,541.0,227.0,1237.0
9164,540.0,227.0,1237.0
9165,540.0,227.0,1158.0
9166,400.0,227.0,1158.0
9167,400.0,227.0,942.0
9168,400.0,227.0,942.0
9169,400.0,227.0,942.0
9170,400.0,227.0,942.0
9171,400.0,227.0,942.0
10955,257.0,123.0,1005.0
10956,257.0,123.0,1005.0
10957,257.0,123.0,1005.0
10958,257.0,123.0,1005.0
10959,257.0,123.0,1005.0
10960,257.0,123.0,1005.0
10961,257.0,123.0,1005.0
10962,257.0,123.0,1005.0
10963,257.0,123.0,680.0
10964,257.0,123.0,680.0
10965,257.0,123.0,680.0
10966,257.0,123.0,680.0
10967,257.0,123.0,680.0
10968,257.0,123.0,680.0
10969,257.0,363.0,680.0
10970,257.0,363.0,680.0
10971,257.0,363.0,977.0
10972,257.0,363.0,977.0
10973,257.0,363.0,977.0
10974,257.0,363.0,977.0
10975,257.0,363.0,977.0
10976,257.0,363.0,977.0
10977,257.0,363.0,977.0
10978,257.0,363.0,977.0
10979,414.0,363.0,977.0
10980,414.0,363.0,1082.0
10981,414.0,363.0,474.0
10982,414.0,363.0,694.0
10983,414.0,363.0,694.0
10984,414.0,363.0,694.0
10985,414.0,363.0,694.0
10986,414.0,363.0,694.0
10987,414.0,363.0,694.0
10988,414.0,363.0,694.0
10989,388.0,363.0,694.0
10990,388.0,363.0,694.0
10991,388.0,363.0,694.0
10992,388.0,363.0,694.0
10993,388.0,218.0,694.0
10994,388.0,218.0,694.0
10995,388.0,218.0,694.0
10996,388.0,218.0,694.0
10997,388.0,231.0,694.0
10998,388.0,231.0,694.0
10999,312.0,231.0,694.0
11000,312.0,231.0,694.0
11001,444.0,231.0,694.0
11002,428.0,231.0,694.0
11003,428.0,231.0,694.0
11004,428.0,231.0,694.0
11005,283.0,231.0,694.0
11006,283.0,231.0,694.0
11007,283.0,231.0,694.0
11008,283.0,231.0,652.0
11009,283.0,231.0,652.0
11010,283.0,231.0,652.0
11011,283.0,231.0,652.0
11012,972.0,231.0,652.0
11013,280.0,362.0,652.0
11014,280.0,362.0,652.0
11015,280.0,214.0,652.0
11016,280.0,214.0,652.0
11017,280.0,214.0,652.0
11018,280.0,214.0,652.0
11019,280.0,114.0,652.0
11020,280.0,114.0,652.0
11021,280.0,315.0,652.0
11022,280.0,315.0,652.0
11023,280.0,315.0,652.0
11024,280.0,191.0,652.0
11025,280.0,191.0,652.0
11026,280.0,191.0,942.0
11027,280.0,191.0,942.0
11028,280.0,191.0,942.0
11029,280.0,191.0,942.0
11030,280.0,300.0,942.0
11031,280.0,149.0,942.0
11032,280.0,149.0,942.0
11033,280.0,149.0,942.0
11034,280.0,149.0,942.0
11035,280.0,149.0,942.0
11036,572.0,149.0,942.0
11037,177.0,149.0,942.0
11038,177.0,149.0,942.0
11039,177.0,149.0,942.0
11040,181.0,149.0,942.0
11041,191.0,149.0,942.0
11042,212.0,149.0,942.0
11043,212.0,149.0,942.0
11044,212.0,149.0,324.0
11045,212.0,149.0,324.0
11046,212.0,149.0,324.0
11047,212.0,149.0,324.0
11048,212.0,149.0,324.0
11049,410.0,149.0,900.0
11050,410.0,149.0,900.0
11051,322.0,149.0,900.0
11052,341.0,149.0,900.0
11053,341.0,149.0,900.0
11054,341.0,149.0,900.0
11055,341.0,149.0,900.0
11056,341.0,149.0,900.0
11057,341.0,149.0,900.0
11058,341.0,318.0,567.0
11059,341.0,318.0,567.0
11060,341.0,318.0,567.0
11061,341.0,318.0,567.0
11062,341.0,318.0,567.0
11063,144.0,318.0,567.0
11064,255.0,193.0,567.0
11065,255.0,260.0,567.0
11066,255.0,531.0,567.0
11067,246.0,531.0,567.0
11068,246.0,531.0,567.0
11069,246.0,531.0,1097.0
11070,246.0,531.0,1097.0
11071,246.0,531.0,573.0
11072,343.0,531.0,573.0
11073,343.0,339.0,573.0
11074,343.0,339.0,448.0
11075,343.0,339.0,448.0
11076,343.0,339.0,487.0
11077,343.0,339.0,942.0
11078,343.0,339.0,942.0
11079,343.0,339.0,1304.0
11080,343.0,212.0,1304.0
11081,343.0,264.0,1304.0
11082,224.0,159.0,1304.0
11083,465.0,159.0,1304.0
11084,465.0,159.0,1304.0
11085,465.0,159.0,1849.0
11086,465.0,159.0,1849.0
11087,465.0,159.0,1849.0
11088,304.0,159.0,1849.0
11089,294.0,159.0,1849.0
11090,294.0,159.0,1849.0
11091,454.0,159.0,1849.0
11092,454.0,159.0,1849.0
12682,1325.0,423.0,1721.0
12683,1325.0,423.0,1721.0
12684,1325.0,423.0,1721.0
12685,1325.0,423.0,1721.0
12686,1817.0,423.0,1721.0
12687,1817.0,423.0,1721.0
12688,2633.0,423.0,1721.0
12689,19.0,423.0,1721.0
12690,181819.0,423.0,1721.0
12691,1819.0,423.0,1721.0
12692,1819.0,423.0,1721.0
12693,1819.0,423.0,1721.0
12694,1819.0,423.0,1721.0
12695,1819.0,355.0,1721.0
12696,1819.0,355.0,1721.0
12697,1819.0,355.0,1721.0
12698,1819.0,355.0,1721.0
12699,1819.0,355.0,1721.0
12700,766.0,355.0,1721.0
12701,766.0,355.0,1721.0
12702,1410.0,355.0,1721.0
12703,1410.0,355.0,1721.0
12704,1132.0,355.0,1721.0
12705,1225.0,355.0,1721.0
12706,1225.0,355.0,1721.0
12707,1225.0,355.0,1721.0
12708,1225.0,355.0,1721.0
12709,1225.0,355.0,1721.0
12710,1225.0,355.0,1721.0
12711,3410.0,283.0,1721.0
12712,3410.0,283.0,1721.0
12713,3482.0,283.0,1721.0
12714,3482.0,283.0,1721.0
12715,2627.0,283.0,1721.0
12716,3086.0,283.0,1721.0
12717,3086.0,283.0,1721.0
12718,3086.0,644.0,1721.0
12719,2061.0,644.0,1721.0
12720,2061.0,644.0,1721.0
12721,2061.0,644.0,1721.0
12722,2061.0,644.0,1721.0
12723,2290.0,644.0,1721.0
12724,1207.0,644.0,1721.0
12725,1207.0,379.0,1721.0
12726,1207.0,379.0,1721.0
12727,1207.0,379.0,1721.0
12728,207.0,379.0,1721.0
12729,12207.0,379.0,1721.0
12730,1207.0,379.0,1721.0
12731,1207.0,379.0,1721.0
12732,1207.0,412.0,1721.0
12733,1207.0,412.0,1721.0
12734,1207.0,412.0,1721.0
12735,1207.0,412.0,1721.0
12736,1207.0,412.0,1721.0
12737,1207.0,412.0,1721.0
12738,1207.0,412.0,1721.0
12739,1207.0,455.0,1721.0
12740,1207.0,455.0,1721.0
12741,1207.0,455.0,1721.0
12742,1207.0,257.0,1721.0
12743,1207.0,257.0,1721.0
14479,1484.0,949.0,566.0
14480,1484.0,949.0,566.0
14481,1484.0,949.0,361.0
14482,1484.0,949.0,361.0
14483,1484.0,949.0,361.0
14484,1484.0,949.0,361.0
14485,35.0,949.0,361.0
14486,35.0,949.0,361.0
14487,2035.0,949.0,361.0
14488,2035.0,949.0,361.0
14489,2035.0,949.0,361.0
14490,2035.0,949.0,361.0
14491,2035.0,1875.0,361.0
14492,2035.0,1875.0,361.0
14493,2035.0,1875.0,361.0
14494,1533.0,1875.0,361.0
14495,1533.0,1875.0,361.0
14496,1275.0,1875.0,361.0
14497,1275.0,1875.0,361.0
14498,1275.0,1875.0,361.0
14499,1275.0,2915.0,361.0
14500,1275.0,4724.0,361.0
14501,1275.0,1656.0,361.0
14502,1275.0,1656.0,361.0
14503,1275.0,1656.0,361.0
14504,1275.0,1656.0,430.0
14505,1275.0,1656.0,404.0
14506,1275.0,1656.0,404.0
14507,1275.0,1656.0,404.0
14508,1275.0,1656.0,404.0
14509,1275.0,1656.0,404.0
14510,1275.0,1656.0,404.0
14511,1275.0,2565.0,404.0
14512,1275.0,2565.0,404.0
14513,1275.0,1871.0,404.0
14514,1275.0,1871.0,404.0
14515,1275.0,1871.0,404.0
14516,1275.0,1871.0,404.0
14517,1275.0,1871.0,404.0
14518,1275.0,1871.0,404.0
14519,1275.0,1871.0,404.0
14520,1275.0,1871.0,404.0
14521,1275.0,1871.0,404.0
14522,1275.0,1871.0,404.0
14523,1275.0,1871.0,404.0
14524,1275.0,1871.0,404.0
14525,1275.0,1871.0,404.0
14526,1275.0,1871.0,404.0
14527,1275.0,1871.0,404.0
14528,1275.0,1806.0,404.0
14529,1275.0,1806.0,404.0
14530,1275.0,1806.0,404.0
14531,1275.0,1806.0,404.0
14532,1275.0,2143.0,356.0
14533,1275.0,2143.0,504.0
14534,1275.0,2143.0,504.0
14535,1275.0,2143.0,504.0
14536,1275.0,2143.0,504.0
14537,1275.0,2143.0,504.0
14538,1275.0,2143.0,504.0
14539,1275.0,2143.0,504.0
14540,1275.0,1568.0,504.0
14541,1275.0,2163.0,504.0
14542,1275.0,2163.0,504.0
14543,1275.0,2163.0,504.0
14544,1275.0,1724.0,504.0
14545,1275.0,2021.0,504.0
14546,1275.0,2021.0,504.0
14547,1275.0,2151.0,504.0
14548,1275.0,2151.0,504.0
14549,1275.0,3421.0,504.0
14550,1275.0,3277.0,504.0
14551,1275.0,3277.0,504.0
14552,1275.0,1895.0,504.0
14553,1275.0,1895.0,504.0
14554,1275.0,1895.0,504.0
14555,1275.0,1895.0,504.0
14556,1275.0,1895.0,504.0
14557,1275.0,1895.0,504.0
14558,1275.0,1895.0,504.0
14559,1275.0,1895.0,504.0
14560,1275.0,1895.0,504.0
14561,1275.0,1895.0,504.0
14562,1275.0,1876.0,504.0
14563,1275.0,1876.0,504.0
14564,1275.0,1876.0,709.0
14565,1275.0,1876.0,709.0
14566,1275.0,3309.0,709.0
14567,1275.0,3309.0,709.0
14568,1275.0,3309.0,438.0
14569,1275.0,3309.0,247.0
14570,1275.0,3309.0,247.0
14571,1275.0,3309.0,247.0
14572,1275.0,3309.0,247.0
14573,1275.0,3309.0,247.0
14574,1275.0,3309.0,247.0
14575,1275.0,3309.0,247.0
14576,1275.0,3309.0,247.0
14577,1275.0,3309.0,247.0
14578,1275.0,3309.0,247.0
14579,1275.0,2384.0,247.0
14580,1275.0,2384.0,247.0
14581,1275.0,2384.0,247.0
14582,1275.0,2384.0,247.0
14583,1275.0,2384.0,405.0
14584,1275.0,2384.0,694.0
14585,1275.0,2384.0,749.0
14586,1275.0,2384.0,749.0
14587,1275.0,2384.0,470.0
14588,1275.0,2384.0,470.0
14589,1275.0,2384.0,214.0
14590,1275.0,2384.0,214.0
14591,1275.0,2384.0,598.0
14592,1275.0,2384.0,598.0
14593,1275.0,2384.0,598.0
14594,1275.0,2384.0,615.0
14595,1275.0,2384.0,615.0
14596,1275.0,2384.0,278.0
14597,1275.0,2384.0,278.0
14598,1275.0,2384.0,707.0
14599,1275.0,2384.0,707.0
14600,1275.0,2384.0,707.0
14601,1275.0,2384.0,707.0
14602,1275.0,1676.0,582.0
14603,1275.0,1676.0,582.0
14604,1275.0,1676.0,582.0
14605,1275.0,1676.0,582.0
14606,1275.0,1676.0,143.0
14607,1275.0,1676.0,143.0
14608,1275.0,1676.0,143.0
14609,1275.0,1676.0,143.0
14610,1275.0,1676.0,509.0
14611,1275.0,1676.0,509.0
14612,1275.0,1676.0,460.0
14613,1275.0,1676.0,1148.0
14614,1275.0,1676.0,1148.0
14615,1275.0,1676.0,1148.0
16166,2354.0,921.0,2964.0
16167,2354.0,921.0,2964.0
16168,2354.0,921.0,2964.0
16169,2354.0,1745.0,2964.0
16170,2354.0,1745.0,2964.0
16171,1466.0,1745.0,2964.0
16172,1466.0,1745.0,2964.0
16173,1639.0,1745.0,2964.0
16174,1639.0,1745.0,2964.0
16175,1639.0,1745.0,2964.0
16176,1639.0,1745.0,2964.0
16177,1639.0,1745.0,2964.0
16178,1639.0,1745.0,2964.0
16179,1639.0,1745.0,2183.0
16180,1639.0,1745.0,2183.0
16181,1639.0,1745.0,2183.0
16182,1639.0,1745.0,2183.0
16183,1639.0,1745.0,2183.0
16184,1639.0,1745.0,2183.0
16185,1639.0,1745.0,2183.0
16186,1639.0,1745.0,2183.0
16187,1639.0,1745.0,2183.0
16188,1639.0,1745.0,2183.0
16189,1242.0,1745.0,2183.0
16190,1242.0,1745.0,2183.0
16191,1242.0,1745.0,2183.0
16192,1242.0,1745.0,2183.0
16193,1711.0,1745.0,2183.0
16194,1672.0,1745.0,2183.0
16195,2287.0,1745.0,2183.0
16196,2287.0,3406.0,2183.0
16197,2287.0,3406.0,2183.0
16198,2287.0,3406.0,2183.0
16199,1284.0,3406.0,2183.0
16200,3195.0,3406.0,2183.0
16201,3195.0,3406.0,2183.0
16202,2266.0,3406.0,2183.0
16203,2507.0,3406.0,2183.0
16204,2507.0,3406.0,2183.0
16205,2507.0,3406.0,2183.0
16206,2507.0,3406.0,2183.0
16207,2507.0,3406.0,2183.0
16208,2507.0,3406.0,2183.0
16209,2507.0,3406.0,2183.0
16210,2507.0,3406.0,2183.0
16211,2507.0,3406.0,2183.0
16212,2507.0,3406.0,2183.0
16213,2507.0,3406.0,2183.0
16214,2507.0,3406.0,2183.0
16215,1849.0,3406.0,2183.0
16216,1849.0,2003.0,2183.0
16217,1158.0,1536.0,2183.0
16218,1158.0,1536.0,2183.0
16219,2150.0,1536.0,2183.0
16220,2150.0,1536.0,2183.0
16221,2150.0,1536.0,2183.0
16222,1208.0,1536.0,2183.0
16223,1208.0,1936.0,2183.0
16224,2067.0,1936.0,2183.0
16225,2067.0,1936.0,2183.0
16226,1977.0,1936.0,2183.0
16227,1977.0,1936.0,2183.0
16228,2074.0,1936.0,2183.0
16229,2074.0,1936.0,2183.0
16230,2074.0,1936.0,2183.0
16231,1820.0,1936.0,2183.0
16232,1820.0,1936.0,2183.0
16233,1820.0,1936.0,2183.0
16234,881.0,1936.0,2183.0
16235,1161.0,1936.0,2183.0
16236,1161.0,1936.0,2183.0
16237,1161.0,1936.0,2183.0
16238,1440.0,1936.0,2183.0
16239,1440.0,1936.0,2183.0
16240,2199.0,1936.0,2183.0
16241,2199.0,1936.0,2183.0
16242,2199.0,1936.0,2183.0
16243,2199.0,1936.0,2183.0
16244,2199.0,1936.0,2183.0
16245,1471.0,1936.0,2183.0
16246,1471.0,1936.0,2183.0
16247,141471.0,1936.0,2183.0
16248,2156.0,1936.0,2183.0
16249,2156.0,1936.0,2183.0
16250,1002.0,1936.0,2183.0
16251,1002.0,1936.0,2183.0
16252,1854.0,1936.0,2183.0
16253,1405.0,1936.0,2183.0
16254,1405.0,1936.0,2183.0
16255,1405.0,1936.0,2183.0
16256,1405.0,1936.0,2183.0
16257,1405.0,1936.0,2183.0
16258,1405.0,1936.0,2183.0
16259,1405.0,1936.0,2534.0
16260,1405.0,1936.0,2534.0
16261,2626.0,1936.0,2534.0
16262,2626.0,1936.0,2534.0
16263,1837.0,1936.0,2534.0
16264,1837.0,1936.0,2534.0
16265,1837.0,1936.0,2534.0
16266,1837.0,1936.0,2850.0
16267,1837.0,1936.0,2850.0
16268,1837.0,1936.0,2850.0
16269,1837.0,1936.0,2850.0
16270,1837.0,1936.0,2850.0
16271,1837.0,1936.0,2850.0
16272,1837.0,1936.0,2850.0
16273,1837.0,1936.0,2850.0
16274,1928.0,1936.0,2850.0
16275,1928.0,1936.0,2850.0
16276,1928.0,1936.0,2850.0
16277,1928.0,1936.0,2850.0
16278,1240.0,1936.0,2850.0
16279,1240.0,1936.0,2850.0
16280,1240.0,1936.0,2850.0
16281,1240.0,1936.0,2850.0
16282,1240.0,1836.0,2850.0
16283,1240.0,1836.0,2850.0
16284,1240.0,2513.0,2850.0
16285,1240.0,2513.0,2850.0
16286,1240.0,2713.0,2850.0
16287,1240.0,2713.0,2850.0
16288,1240.0,2713.0,2850.0
16289,1240.0,2713.0,2850.0
16290,7.0,2713.0,2850.0
16291,1240.0,2713.0,1562.0
16292,11240.0,2017.0,1562.0
16293,1240.0,2017.0,1562.0
16294,1240.0,2017.0,1562.0
16295,2542.0,2017.0,1562.0
16296,2542.0,2017.0,1562.0
16297,2542.0,2017.0,1562.0
16298,2542.0,2017.0,1562.0
16299,2542.0,2017.0,1562.0
16300,2542.0,2017.0,1562.0
16301,2745.0,1327.0,1562.0
16302,2745.0,1327.0,1562.0
16303,2745.0,1327.0,1562.0
17396,2036.0,236.0,292.0
17397,1357.0,292.0,292.0
17398,2385.0,2385.0,292.0
17399,1881.0,292.0,292.0
17968,873.0,673.0,3145.0
17969,873.0,673.0,3145.0
17970,873.0,673.0,3145.0
17971,873.0,673.0,3145.0
17972,1896.0,673.0,3145.0
17973,1896.0,673.0,3145.0
17974,1896.0,673.0,3145.0
17975,1288.0,673.0,3145.0
17976,1.0,673.0,3145.0
17977,1288.0,673.0,3145.0
17978,1288.0,673.0,3145.0
17979,1562.0,673.0,3145.0
17980,1562.0,673.0,3145.0
17981,1562.0,673.0,3145.0
17982,2248.0,673.0,3145.0
17983,2248.0,673.0,3145.0
17984,2248.0,673.0,3145.0
17985,2248.0,673.0,3145.0
17986,2248.0,673.0,3145.0
17987,2248.0,673.0,3145.0
17988,631.0,673.0,3145.0
17989,631.0,673.0,3145.0
17990,631.0,750.0,3145.0
17991,631.0,750.0,3145.0
17992,631.0,750.0,3145.0
17993,631.0,750.0,3145.0
17994,631.0,750.0,3145.0
17995,631.0,750.0,3145.0
17996,631.0,750.0,3145.0
17997,631.0,750.0,3145.0
17998,631.0,750.0,3145.0
17999,631.0,750.0,3145.0
18000,631.0,750.0,3145.0
18001,1360.0,750.0,3145.0
18002,1360.0,750.0,3145.0
18003,1360.0,750.0,3145.0
18004,1360.0,750.0,3145.0
18005,1360.0,750.0,3145.0
18006,1360.0,750.0,3145.0
18007,1360.0,750.0,3145.0
18008,1360.0,750.0,3145.0
18009,1360.0,750.0,3145.0
18010,1360.0,750.0,3145.0
18011,1360.0,750.0,3145.0
18012,1360.0,750.0,3145.0
18013,1360.0,750.0,3145.0
18014,1360.0,750.0,3145.0
18015,1360.0,750.0,3145.0
18016,60.0,750.0,3145.0
18017,1360.0,750.0,3145.0
18018,1360.0,750.0,3145.0
18019,1891.0,750.0,3145.0
18020,18991.0,750.0,3145.0
18021,1891.0,750.0,3145.0
18022,1891.0,750.0,3145.0
18023,1891.0,750.0,3145.0
18024,1891.0,1073.0,3145.0
18025,1891.0,1073.0,3145.0
18026,1891.0,1073.0,3145.0
18027,1891.0,1073.0,3145.0
18028,1891.0,1073.0,3145.0
18029,603.0,1073.0,3145.0
18030,603.0,1073.0,3145.0
18031,603.0,1073.0,3145.0
18032,603.0,1073.0,3145.0
18033,603.0,1073.0,3145.0
18034,951.0,1073.0,3145.0
18035,1152.0,1073.0,3145.0
18036,1152.0,1073.0,3145.0
18037,1152.0,1073.0,3145.0
18038,1152.0,1073.0,3145.0
18039,1152.0,1073.0,3145.0
18040,1741.0,1073.0,3145.0
18041,1741.0,1073.0,3145.0
18042,1741.0,1073.0,3145.0
18043,1741.0,1073.0,3145.0
18044,1741.0,1073.0,3145.0
18045,1741.0,1073.0,3145.0
18046,1628.0,1073.0,3145.0
18047,1540.0,1073.0,3145.0
18048,1540.0,1073.0,3145.0
18049,1842.0,1073.0,3145.0
18050,1263.0,1073.0,3145.0
18051,2168.0,1073.0,3145.0
18052,2168.0,1073.0,3145.0
18053,232.0,1073.0,3145.0
18054,232.0,1073.0,3145.0
18055,1640.0,1073.0,3145.0
18056,1640.0,1073.0,3145.0
18057,1640.0,1073.0,3145.0
18887,911.0,3564.0,2419.0
18888,911.0,3564.0,2419.0
18889,911.0,3564.0,2419.0
18890,911.0,3564.0,2419.0
18891,911.0,3564.0,2419.0
18892,911.0,3564.0,2419.0
18893,911.0,3564.0,2419.0
18894,911.0,3564.0,2419.0
18895,911.0,3564.0,2419.0
18896,911.0,3564.0,2419.0
18897,911.0,3564.0,2419.0
18898,911.0,3564.0,2419.0
18899,911.0,3564.0,2419.0
18900,911.0,3564.0,2419.0
18901,911.0,3564.0,2419.0
18902,911.0,3564.0,2419.0
18903,911.0,3564.0,2419.0
18904,911.0,3564.0,2419.0
18905,911.0,3564.0,2419.0
18906,911.0,3564.0,2419.0
18907,1968.0,3564.0,2419.0
18908,1968.0,3564.0,2419.0
18909,1020.0,3564.0,2419.0
18910,1020.0,3564.0,2419.0
18911,1020.0,3564.0,2419.0
18912,1020.0,3564.0,2419.0
18913,1020.0,3564.0,2419.0
18914,1020.0,3564.0,2419.0
18915,1020.0,3564.0,2419.0
18916,1020.0,3564.0,2419.0
18917,1020.0,3564.0,2419.0
18918,1020.0,3564.0,2419.0
18919,1020.0,3564.0,2419.0
18920,1020.0,3564.0,2419.0
18921,1020.0,3564.0,2419.0
18922,1020.0,3564.0,2419.0
18923,1020.0,3564.0,2419.0
18924,1020.0,3564.0,2419.0
18925,1020.0,3564.0,2419.0
18926,1020.0,3564.0,2419.0
18927,1020.0,3564.0,2419.0
18928,1020.0,3564.0,2419.0
18929,1020.0,3564.0,2419.0
18930,1020.0,3564.0,2419.0
18931,574.0,3564.0,2419.0
18932,574.0,3564.0,2419.0
18933,1573.0,3564.0,2419.0
18934,1407.0,3564.0,2419.0
18935,1683.0,3.0,3414.0
18936,1320.0,3320.0,3414.0
19850,100.0,2115.0,2651.0
19851,836.0,1167.0,2651.0
19852,836.0,1167.0,2651.0
19853,836.0,2508.0,2651.0
19854,836.0,2508.0,2651.0
19855,977.0,2508.0,2651.0
19856,977.0,2508.0,2651.0
19857,977.0,2508.0,2651.0
19858,977.0,2508.0,2651.0
19859,977.0,2508.0,2651.0
19860,977.0,2508.0,2651.0
19861,977.0,2508.0,2651.0
19862,977.0,2508.0,2651.0
19863,977.0,2508.0,2651.0
19864,977.0,2508.0,1211.0
19865,977.0,2508.0,4297.0
19866,977.0,2508.0,4297.0
19867,977.0,2508.0,2606.0
19868,977.0,2508.0,2606.0
19869,977.0,2508.0,2606.0
19870,977.0,2508.0,2606.0
19871,97.0,2508.0,2606.0
19872,9777.0,2508.0,2606.0
19873,977.0,2508.0,2606.0
19874,977.0,2508.0,2606.0
19875,977.0,2508.0,2606.0
19876,977.0,2508.0,2606.0
19877,977.0,2508.0,2606.0
19878,977.0,2508.0,2606.0
19879,977.0,2508.0,2606.0
19880,977.0,2508.0,2606.0
19881,977.0,2508.0,2606.0
19882,977.0,2508.0,2606.0
19883,977.0,2508.0,2606.0
19884,977.0,2508.0,2606.0
19885,847.0,2508.0,2606.0
19886,847.0,2508.0,2606.0
19887,847.0,2508.0,2606.0
19888,847.0,2508.0,1745.0
19889,847.0,2508.0,1745.0
19890,847.0,2508.0,1745.0
19891,847.0,2508.0,1745.0
19892,847.0,2508.0,1745.0
19893,847.0,2508.0,1745.0
19894,847.0,2508.0,1745.0
19895,847.0,848.0,1745.0
19896,847.0,848.0,1745.0
19897,847.0,848.0,1745.0
19898,1535.0,848.0,1745.0
19899,1535.0,848.0,1745.0
19900,1535.0,848.0,1745.0
19901,1535.0,848.0,1745.0
19902,1535.0,848.0,1745.0
19903,1535.0,848.0,1745.0
19904,1535.0,848.0,1745.0
19905,1535.0,848.0,1745.0
19906,1535.0,848.0,1745.0
19907,1535.0,848.0,1745.0
19908,1535.0,848.0,1745.0
19909,1535.0,848.0,1745.0
19910,1535.0,848.0,1745.0
19911,1535.0,848.0,1745.0
19912,1535.0,848.0,2500.0
19913,1535.0,848.0,2500.0
19914,1535.0,848.0,3018.0
19915,1535.0,848.0,3018.0
19916,1535.0,848.0,3018.0
19917,1943.0,848.0,3018.0
19918,1943.0,848.0,3018.0
19919,1943.0,848.0,3018.0
19920,11943.0,848.0,3018.0
19921,1943.0,848.0,3018.0
19922,1943.0,848.0,3018.0
19923,1943.0,848.0,3018.0
19924,1943.0,848.0,3018.0
19925,1943.0,848.0,3018.0
19926,1943.0,848.0,3018.0
19927,1943.0,848.0,3018.0
19928,1943.0,848.0,3018.0
19929,1617.0,848.0,3018.0
19930,1617.0,848.0,3018.0
19931,1617.0,848.0,3018.0
19932,1617.0,848.0,3018.0
19933,1762.0,848.0,3018.0
19934,1762.0,848.0,3018.0
19935,1762.0,848.0,3018.0
19936,1762.0,848.0,3018.0
19937,1762.0,848.0,3018.0
19938,1762.0,848.0,3018.0
19939,1265.0,848.0,3018.0
19940,1265.0,848.0,3018.0
19941,1265.0,848.0,3018.0
19942,1265.0,848.0,3018.0
19943,1265.0,848.0,3018.0
19944,1591265.0,848.0,3018.0
19945,1265.0,848.0,3018.0
19946,1265.0,848.0,3018.0
19947,1265.0,848.0,3018.0
19948,1265.0,848.0,3018.0
19949,1265.0,848.0,3018.0
19950,1265.0,848.0,3018.0
19951,1265.0,848.0,3018.0
19952,1265.0,848.0,3018.0
19953,1265.0,848.0,3018.0
19954,1265.0,848.0,3018.0
19955,1265.0,848.0,3018.0
19956,1265.0,848.0,3018.0
19957,1265.0,848.0,3018.0
19958,1265.0,848.0,3018.0
19959,1265.0,848.0,3018.0
19960,19.0,848.0,3018.0
19961,8819.0,848.0,3018.0
19962,1787.0,848.0,3018.0
19963,1787.0,848.0,3018.0
19964,1787.0,848.0,3018.0
19965,2241.0,848.0,3018.0
19966,2241.0,848.0,3018.0
19967,1472.0,848.0,3018.0
19968,1472.0,848.0,3018.0
19969,1472.0,848.0,3018.0
19970,1472.0,848.0,3018.0
19971,1472.0,848.0,3018.0
21429,1036.0,1752.0,396.0
21430,1036.0,1752.0,396.0
21431,1038.0,1752.0,396.0
21432,1038.0,1452.0,396.0
21433,1038.0,1452.0,396.0
21434,1295.0,1452.0,396.0
21435,1295.0,1452.0,396.0
21436,1295.0,1452.0,396.0
21437,1295.0,1359.0,396.0
21438,1621.0,1359.0,396.0
21439,1621.0,1359.0,396.0
21440,1621.0,1359.0,396.0
21441,1621.0,1359.0,396.0
21442,1621.0,1359.0,392.0
21443,1621.0,1359.0,392.0
21444,21.0,1359.0,392.0
21445,1621.0,1359.0,392.0
21446,1621.0,1359.0,164.0
21447,1621.0,1359.0,164.0
21448,1621.0,1359.0,164.0
21449,1621.0,3910.0,164.0
21450,1621.0,3910.0,164.0
21451,1621.0,2703.0,164.0
21452,1621.0,2703.0,164.0
21453,1621.0,2703.0,164.0
21454,1621.0,2703.0,164.0
21455,1621.0,2703.0,640.0
21456,1621.0,2180.0,640.0
21457,1621.0,2180.0,640.0
21458,1621.0,2180.0,640.0
21459,1621.0,2180.0,640.0
21460,16621.0,2180.0,640.0
21461,1621.0,2180.0,640.0
21462,1621.0,2180.0,640.0
21463,1621.0,2016.0,640.0
21464,1621.0,2016.0,640.0
21465,1621.0,2095.0,640.0
21466,1621.0,1991.0,640.0
21467,1621.0,1692.0,640.0
21468,1621.0,2421.0,640.0
21469,1621.0,2421.0,640.0
21470,100.0,1510.0,640.0
21471,1621.0,1510.0,640.0
21472,1621.0,1510.0,640.0
21473,1621.0,1510.0,640.0
21474,1621.0,1510.0,640.0
21475,1621.0,1510.0,640.0
21476,1621.0,1510.0,640.0
21477,1621.0,1510.0,640.0
21478,1621.0,1510.0,640.0
21479,1621.0,1510.0,640.0
21480,1621.0,1510.0,640.0
21481,1621.0,1510.0,640.0
21482,1621.0,1510.0,640.0
21483,1621.0,1510.0,640.0
21484,1621.0,1510.0,642.0
21485,1621.0,1510.0,642.0
21486,1621.0,1510.0,642.0
21487,1621.0,1510.0,642.0
21488,1621.0,1469.0,415.0
21489,1621.0,1469.0,415.0
21490,1621.0,1469.0,489.0
21491,1621.0,1469.0,489.0
21492,1621.0,1597.0,489.0
21493,1621.0,1597.0,489.0
21494,1621.0,1597.0,489.0
21495,1621.0,1597.0,489.0
21496,1621.0,1597.0,489.0
21497,1621.0,1597.0,489.0
21498,1621.0,1597.0,489.0
21499,1621.0,1597.0,489.0
21500,1621.0,1597.0,489.0
21501,1621.0,1597.0,489.0
21502,1621.0,1597.0,489.0
21503,1621.0,1597.0,489.0
21504,162121.0,2647.0,489.0
21505,1621.0,2068.0,489.0
21506,1621.0,2068.0,489.0
21507,1621.0,2068.0,489.0
21508,1621.0,2068.0,489.0
21509,1621.0,2068.0,489.0
21510,1621.0,2068.0,489.0
21511,1621.0,2068.0,489.0
21512,1621.0,2068.0,489.0
21513,1621.0,2068.0,489.0
21514,1621.0,2068.0,489.0
21515,1621.0,2068.0,489.0
21516,1621.0,2068.0,489.0
21517,1621.0,1709.0,489.0
21518,1621.0,1709.0,489.0
21519,1621.0,1709.0,489.0
21520,1998.0,1709.0,489.0
21521,1998.0,1709.0,489.0
21522,1998.0,1627.0,489.0
21523,1998.0,1627.0,489.0
21524,1998.0,1627.0,489.0
21525,16998.0,1627.0,489.0
21526,11998.0,1627.0,489.0
21527,1998.0,1627.0,489.0
21528,1998.0,1627.0,489.0
21529,1998.0,2479.0,489.0
21530,1998.0,2479.0,489.0
21531,1998.0,2479.0,489.0
21532,1998.0,2479.0,489.0
21533,1998.0,2479.0,489.0
21534,1998.0,2479.0,489.0
21535,1998.0,2479.0,489.0
21536,1998.0,2479.0,489.0
21537,1679.0,2479.0,489.0
21538,1679.0,2479.0,489.0
21539,1679.0,2479.0,489.0
21540,1679.0,1223.0,489.0
21541,1679.0,1223.0,489.0
21542,1679.0,1223.0,489.0
21543,1679.0,1223.0,489.0
21544,1679.0,1223.0,489.0
21545,1679.0,1223.0,489.0
21546,1679.0,1223.0,489.0
21547,1679.0,1223.0,489.0
21548,1679.0,2173.0,489.0
21549,1679.0,2173.0,489.0
21550,1679.0,2173.0,489.0
21551,1679.0,2173.0,489.0
21552,1679.0,2173.0,489.0
21553,1679.0,1202.0,489.0
21554,1679.0,1202.0,489.0
21555,1679.0,1202.0,489.0
21556,1679.0,1202.0,489.0
21557,1679.0,1202.0,489.0
21558,1679.0,1202.0,489.0
21559,1679.0,1202.0,489.0
21560,1679.0,1760.0,489.0
21561,1679.0,1760.0,489.0
21562,1679.0,1760.0,489.0
21563,1679.0,2000.0,489.0
21564,1679.0,2000.0,489.0
21565,1679.0,2000.0,489.0
21566,1679.0,2000.0,489.0
21567,1679.0,2000.0,489.0
21568,1679.0,2000.0,489.0
23271,155.0,36.0,209.0
23272,254.0,36.0,209.0
23273,254.0,36.0,209.0
23274,254.0,36.0,209.0
23275,254.0,36.0,444.0
23276,300.0,81.0,444.0
23277,183.0,81.0,444.0
23278,183.0,81.0,444.0
23279,183.0,72.0,290.0
23280,183.0,59.0,290.0
23281,183.0,35.0,290.0
23282,183.0,35.0,322.0
23283,183.0,35.0,215.0
23284,183.0,35.0,264.0
23285,356.0,35.0,320.0
23286,217.0,35.0,320.0
23287,217.0,35.0,320.0
23288,217.0,35.0,80.0
23289,217.0,35.0,279.0
23290,136.0,35.0,279.0
23291,125.0,35.0,279.0
23292,125.0,33.0,279.0
23293,125.0,33.0,218.0
23294,125.0,33.0,218.0
23295,125.0,69.0,178.0
23296,125.0,31.0,178.0
23297,107.0,31.0,178.0
23298,107.0,31.0,178.0
23299,107.0,31.0,178.0
23300,107.0,31.0,178.0
23301,107.0,31.0,189.0
23302,107.0,31.0,189.0
23303,107.0,31.0,323.0
23304,150.0,31.0,259.0
23305,150.0,47.0,128.0
23306,150.0,47.0,238.0
23307,140.0,47.0,238.0
23308,140.0,47.0,196.0
23309,140.0,47.0,196.0
23310,140.0,47.0,196.0
23311,140.0,47.0,196.0
23312,140.0,47.0,204.0
23313,140.0,47.0,177.0
23314,140.0,47.0,177.0
23315,140.0,47.0,177.0
23316,140.0,47.0,177.0
23317,187.0,45.0,177.0
23318,187.0,45.0,177.0
23319,187.0,45.0,177.0
23320,170.0,45.0,177.0
23321,340.0,45.0,177.0
23322,158.0,45.0,177.0
23323,158.0,45.0,380.0
23324,158.0,45.0,380.0
23325,158.0,45.0,191.0
23326,158.0,45.0,191.0
23327,158.0,45.0,191.0
23328,158.0,37.0,191.0
23329,158.0,37.0,191.0
23330,171.0,37.0,191.0
23331,171.0,37.0,191.0
23332,171.0,37.0,114.0
23333,194.0,37.0,114.0
23334,194.0,37.0,114.0
23335,194.0,37.0,114.0
23336,194.0,37.0,343.0
23337,194.0,37.0,343.0
23338,194.0,37.0,343.0
23339,194.0,37.0,343.0
23340,194.0,95.0,343.0
23341,306.0,95.0,343.0
23342,240.0,95.0,343.0
23343,256.0,95.0,343.0
23344,320.0,95.0,343.0
23345,88.0,95.0,343.0
23346,88.0,95.0,343.0
23347,88.0,95.0,343.0
23348,88.0,95.0,343.0
23349,88.0,95.0,343.0
23350,88.0,68.0,343.0
23351,88.0,68.0,343.0
23352,88.0,68.0,184.0
23353,88.0,68.0,184.0
23354,88.0,68.0,184.0
23355,88.0,77.0,295.0
23356,88.0,77.0,184.0
23357,88.0,77.0,305.0
23358,88.0,77.0,305.0
23359,171.0,77.0,305.0
23360,171.0,77.0,305.0
23361,171.0,77.0,305.0
23362,171.0,77.0,305.0
23363,171.0,77.0,305.0
23364,171.0,77.0,305.0
23365,258.0,77.0,305.0
23366,117.0,73.0,305.0
23367,117.0,73.0,305.0
23368,218.0,73.0,322.0
23369,218.0,73.0,322.0
23370,218.0,73.0,322.0
23371,194.0,73.0,322.0
23372,194.0,73.0,322.0
23373,194.0,73.0,322.0
23374,130.0,73.0,278.0
23375,164.0,73.0,278.0
23376,164.0,73.0,277.0
23377,164.0,83.0,277.0
23378,164.0,83.0,277.0
23379,164.0,110.0,248.0
23380,164.0,53.0,248.0
23381,164.0,101.0,248.0
23382,164.0,54.0,248.0
23383,164.0,54.0,248.0
23384,68.0,54.0,248.0
23385,226.0,54.0,248.0
23386,286.0,73.0,248.0
23387,286.0,73.0,281.0
23388,286.0,90.0,281.0
23389,286.0,90.0,205.0
23390,186.0,90.0,240.0
23391,186.0,90.0,240.0
23392,186.0,90.0,240.0
23393,186.0,83.0,240.0
23394,186.0,83.0,240.0
23395,203.0,83.0,240.0
23396,323.0,33.0,240.0
23397,270.0,33.0,240.0
23398,270.0,33.0,240.0
23399,270.0,33.0,272.0
23400,270.0,60.0,272.0
23401,270.0,62.0,272.0
23402,270.0,62.0,272.0
23403,270.0,62.0,108.0
23404,270.0,62.0,108.0
23405,206.0,62.0,108.0
23406,250.0,62.0,108.0
23407,203.0,62.0,108.0
23408,203.0,62.0,108.0
23409,203.0,62.0,108.0
23410,203.0,62.0,108.0
23411,203.0,62.0,108.0
23412,203.0,59.0,108.0
23413,203.0,59.0,342.0
23414,203.0,66.0,160.0
23415,203.0,66.0,160.0
23416,203.0,66.0,160.0
23417,203.0,66.0,160.0
23418,82.0,66.0,160.0
23419,82.0,60.0,160.0
23420,82.0,58.0,160.0
23421,82.0,58.0,160.0
23422,82.0,53.0,160.0
25250,169.0,51.0,185.0
25251,169.0,53.0,185.0
25252,169.0,53.0,185.0
25253,272.0,53.0,185.0
25254,272.0,53.0,274.0
25255,272.0,53.0,274.0
25256,272.0,68.0,274.0
25257,272.0,68.0,274.0
25258,272.0,79.0,274.0
25259,272.0,63.0,274.0
25260,272.0,63.0,274.0
25261,272.0,63.0,274.0
25262,272.0,75.0,274.0
25263,272.0,75.0,274.0
25264,272.0,75.0,274.0
25265,272.0,75.0,274.0
25266,272.0,75.0,274.0
25267,272.0,75.0,274.0
25268,272.0,75.0,274.0
25269,272.0,61.0,274.0
25270,307.0,61.0,274.0
25271,307.0,61.0,274.0
25272,204.0,61.0,274.0
25273,204.0,61.0,274.0
25274,204.0,127.0,274.0
25275,204.0,91.0,274.0
25276,425.0,91.0,274.0
25277,425.0,91.0,274.0
25278,425.0,38.0,274.0
25279,425.0,38.0,274.0
25280,425.0,110.0,274.0
25281,425.0,110.0,274.0
25282,374.0,110.0,274.0
25283,374.0,110.0,274.0
25284,374.0,110.0,274.0
25285,374.0,110.0,361.0
25286,374.0,110.0,199.0
25287,374.0,110.0,199.0
25288,374.0,110.0,411.0
25289,374.0,110.0,411.0
25290,374.0,110.0,404.0
25291,374.0,110.0,404.0
25292,374.0,110.0,404.0
25293,374.0,110.0,376.0
25294,374.0,110.0,376.0
25295,374.0,110.0,376.0
25296,374.0,110.0,242.0
25297,374.0,110.0,169.0
25298,374.0,110.0,169.0
25299,306.0,110.0,169.0
25300,306.0,110.0,367.0
25301,306.0,110.0,594.0
25302,306.0,110.0,594.0
25303,306.0,110.0,594.0
25304,306.0,110.0,594.0
25305,141.0,110.0,360.0
25306,141.0,110.0,360.0
25307,141.0,110.0,360.0
25308,141.0,95.0,360.0
25309,141.0,38.0,360.0
25310,141.0,61.0,360.0
25311,141.0,61.0,360.0
25312,284.0,66.0,360.0
25313,284.0,66.0,209.0
25314,284.0,66.0,209.0
25315,284.0,66.0,209.0
25316,284.0,66.0,209.0
25317,284.0,66.0,209.0
25318,277.0,45.0,209.0
25319,277.0,35.0,181.0
25320,277.0,35.0,233.0
25321,277.0,35.0,233.0
25322,289.0,35.0,233.0
25323,289.0,108.0,233.0
25324,289.0,50.0,233.0
25325,289.0,50.0,233.0
25326,291.0,131.0,233.0
25327,291.0,131.0,233.0
25328,215.0,131.0,233.0
25329,215.0,131.0,233.0
25330,117.0,131.0,233.0
25331,117.0,131.0,233.0
25332,117.0,65.0,233.0
25333,117.0,65.0,233.0
25334,298.0,65.0,233.0
25335,298.0,65.0,233.0
25336,298.0,65.0,346.0
25337,298.0,65.0,346.0
25338,141.0,65.0,346.0
25339,141.0,65.0,346.0
25340,141.0,65.0,346.0
25341,141.0,65.0,346.0
25342,141.0,65.0,346.0
25343,141.0,65.0,346.0
25344,141.0,53.0,346.0
25345,141.0,80.0,346.0
25346,141.0,111.0,308.0
25347,141.0,117.0,308.0
25348,141.0,117.0,308.0
25349,141.0,100.0,308.0
25350,141.0,100.0,168.0
25351,141.0,100.0,181.0
25352,141.0,100.0,199.0
25353,141.0,100.0,199.0
25354,141.0,96.0,199.0
25355,141.0,96.0,199.0
25356,141.0,96.0,199.0
25357,141.0,96.0,306.0
25358,329.0,96.0,306.0
25359,329.0,96.0,306.0
25360,329.0,96.0,306.0
25361,329.0,96.0,306.0
25362,263.0,96.0,306.0
25363,263.0,96.0,306.0
25364,270.0,108.0,306.0
25365,270.0,51.0,306.0
25366,173.0,51.0,306.0
25367,173.0,51.0,306.0
25368,273.0,51.0,325.0
25369,273.0,51.0,325.0
25370,273.0,47.0,325.0
25371,354.0,47.0,325.0
25372,354.0,100.0,325.0
25373,354.0,100.0,325.0
25374,332.0,100.0,325.0
25375,332.0,100.0,325.0
25376,332.0,100.0,325.0
25377,332.0,100.0,197.0
25378,332.0,100.0,467.0
25379,332.0,170.0,467.0
25380,225.0,170.0,165.0
25381,225.0,170.0,228.0
25382,215.0,170.0,364.0
25383,182.0,170.0,364.0
25384,182.0,170.0,364.0
25385,182.0,170.0,364.0
25386,256.0,170.0,364.0
25387,256.0,170.0,364.0
25388,256.0,170.0,741.0
25389,256.0,170.0,321.0
25390,256.0,170.0,321.0
25391,256.0,84.0,321.0
25392,256.0,84.0,321.0
25393,204.0,146.0,321.0
25394,204.0,146.0,402.0
25395,166.0,146.0,502.0
25396,166.0,146.0,502.0
25397,196.0,146.0,502.0
25398,196.0,146.0,502.0
25399,258.0,146.0,502.0
25400,200.0,146.0,502.0
25401,174.0,146.0,502.0
27559,1651.0,625.0,1918.0
27560,1651.0,625.0,1918.0
27561,1651.0,625.0,1918.0
27562,1651.0,625.0,1918.0
27563,1651.0,625.0,1918.0
27564,1651.0,1079.0,1918.0
27565,1797.0,1079.0,1918.0
27566,1797.0,1079.0,1918.0
27567,1797.0,1079.0,1918.0
27568,1797.0,1079.0,1918.0
27569,853.0,1079.0,1918.0
27570,853.0,1079.0,1918.0
27571,853.0,1079.0,1918.0
27572,853.0,1079.0,1918.0
27573,853.0,1079.0,1918.0
27574,853.0,1079.0,1918.0
27575,853.0,1079.0,1918.0
27576,853.0,1079.0,1918.0
27577,853.0,1079.0,1918.0
27578,853.0,713.0,1918.0
27579,2209.0,713.0,1918.0
27580,2209.0,713.0,1918.0
27581,2209.0,713.0,1918.0
27582,2209.0,713.0,1918.0
27583,2209.0,713.0,1918.0
27584,2209.0,713.0,1918.0
27585,2209.0,713.0,1918.0
27586,2209.0,713.0,1918.0
27587,2209.0,713.0,1918.0
27588,2209.0,713.0,1918.0
27589,2209.0,713.0,1918.0
27590,2209.0,713.0,1918.0
27591,2209.0,713.0,1918.0
27592,2209.0,713.0,1918.0
27593,2209.0,713.0,1918.0
27594,1135.0,713.0,1918.0
27595,1135.0,713.0,1918.0
27596,1135.0,713.0,1918.0
27597,1135.0,713.0,1918.0
27598,1135.0,713.0,1918.0
27599,1135.0,713.0,1918.0
27600,1954.0,713.0,2582.0
27601,1954.0,713.0,2582.0
27602,829.0,713.0,2582.0
27603,829.0,713.0,2582.0
27604,829.0,713.0,2582.0
27605,829.0,713.0,2736.0
27606,829.0,713.0,2736.0
27607,829.0,713.0,2736.0
27608,829.0,713.0,2736.0
27609,829.0,713.0,2736.0
27610,829.0,713.0,2736.0
27611,829.0,713.0,2736.0
27612,1249.0,713.0,2736.0
27613,1249.0,713.0,2736.0
27614,1249.0,713.0,2736.0
27615,1249.0,713.0,2736.0
27616,1249.0,713.0,2736.0
27617,1249.0,713.0,2736.0
27618,1249.0,713.0,2736.0
27619,1249.0,713.0,2736.0
27620,1249.0,713.0,2736.0
27621,1249.0,713.0,2736.0
27622,1249.0,713.0,2736.0
27623,1110.0,713.0,2736.0
27624,1110.0,713.0,2736.0
27625,1668.0,713.0,2736.0
27626,1668.0,713.0,2736.0
27627,1668.0,713.0,2736.0
27628,1668.0,713.0,2736.0
27629,1668.0,713.0,2736.0
27630,1668.0,713.0,2736.0
27631,1668.0,713.0,2736.0
27632,1668.0,713.0,2736.0
27633,1210.0,713.0,2736.0
27634,1210.0,713.0,2736.0
27635,2389.0,713.0,2736.0
27636,2389.0,713.0,2736.0
27637,2389.0,713.0,2736.0
27638,2389.0,713.0,2736.0
27639,582.0,713.0,2736.0
27640,582.0,713.0,2736.0
27641,582.0,713.0,2736.0
27642,582.0,713.0,2736.0
27643,582.0,713.0,2736.0
27644,2182.0,713.0,2736.0
27645,2182.0,713.0,2736.0
27646,2182.0,713.0,2736.0
27647,687.0,713.0,2736.0
27648,687.0,713.0,2736.0
27649,885.0,713.0,2736.0
27650,885.0,713.0,2736.0
27651,885.0,713.0,2736.0
27652,885.0,713.0,2736.0
27653,1313.0,713.0,2736.0
27654,1313.0,713.0,2736.0
27655,1377.0,713.0,2736.0
27656,1377.0,713.0,2736.0
27657,1377.0,713.0,2736.0
27658,1377.0,713.0,2736.0
27659,513.0,713.0,2736.0
27660,513.0,713.0,2736.0
27661,513.0,713.0,2736.0
27662,513.0,713.0,2736.0
27663,513.0,713.0,2736.0
27664,513.0,713.0,2736.0
27665,759.0,713.0,2736.0
27666,1154.0,713.0,2736.0
27667,1154.0,713.0,2736.0
27668,1154.0,713.0,2736.0
27669,1154.0,713.0,2736.0
27670,1154.0,713.0,2736.0
27671,1154.0,713.0,2736.0
27672,1154.0,713.0,2736.0
27673,1154.0,713.0,2736.0
27674,1154.0,713.0,2736.0
27675,1154.0,713.0,2736.0
27676,1154.0,713.0,2736.0
27677,1154.0,713.0,2736.0
27678,1154.0,591.0,2736.0
27679,1154.0,591.0,2736.0
27680,1680.0,591.0,2736.0
27681,1680.0,591.0,2736.0
27682,838.0,591.0,2736.0
27683,838.0,591.0,2736.0
27684,1487.0,591.0,2736.0
27685,1487.0,591.0,2736.0
27686,1487.0,436.0,2736.0
27687,1487.0,436.0,2736.0
27688,1487.0,436.0,2736.0
27689,1487.0,436.0,2736.0
27690,1487.0,436.0,2736.0
27691,1487.0,436.0,2736.0
27692,1487.0,436.0,2736.0
27693,1487.0,436.0,2736.0
27694,1487.0,436.0,2736.0
27695,1487.0,436.0,2736.0
27696,1487.0,436.0,2736.0
27697,823.0,436.0,2736.0
27698,823.0,436.0,2736.0
27699,823.0,436.0,2736.0
27700,823.0,436.0,2736.0
27701,823.0,436.0,2736.0
27702,823.0,436.0,2736.0
27703,823.0,436.0,2736.0
27704,823.0,436.0,2736.0
27705,1413.0,436.0,2736.0
27706,1413.0,436.0,2736.0
27707,1413.0,436.0,2736.0
27708,1413.0,436.0,2736.0
27709,1413.0,436.0,2736.0
27710,1413.0,436.0,2736.0
27711,1413.0,436.0,2736.0
27712,1413.0,436.0,2736.0
27713,1413.0,436.0,2736.0
28405,1301.0,1475.0,746.0
28406,1301.0,1475.0,746.0
28407,1301.0,1475.0,746.0
28408,1122.0,1475.0,746.0
28409,1122.0,1475.0,746.0
28410,1122.0,1475.0,746.0
28411,1122.0,1475.0,746.0
28412,1122.0,1475.0,746.0
28413,1122.0,1475.0,2793.0
28414,1122.0,1475.0,2793.0
28415,1122.0,1475.0,2793.0
28416,1122.0,1475.0,2793.0
28417,1122.0,1475.0,2793.0
28418,1122.0,1475.0,2793.0
28419,1122.0,1475.0,2793.0
28420,1122.0,1475.0,2793.0
28421,1122.0,1475.0,2793.0
28422,1122.0,1475.0,2793.0
28423,1122.0,1475.0,2793.0
28424,1122.0,1475.0,2793.0
28425,1122.0,1475.0,2793.0
28426,1122.0,1475.0,2793.0
28427,575.0,1475.0,2793.0
28428,575.0,1475.0,2897.0
28429,575.0,1475.0,2897.0
28430,575.0,1475.0,2897.0
28431,575.0,1475.0,2897.0
28432,1388.0,1475.0,2897.0
28433,1388.0,1475.0,2897.0
28434,1388.0,1475.0,2897.0
28435,1388.0,1475.0,2897.0
28436,1388.0,1475.0,2897.0
28437,1388.0,1475.0,2897.0
28438,1331.0,1475.0,2897.0
28439,1331.0,1475.0,2897.0
28440,1331.0,1475.0,2897.0
28441,1331.0,1475.0,2897.0
28442,1331.0,1475.0,2897.0
28443,1331.0,1475.0,2897.0
28444,1331.0,1475.0,2897.0
28445,1331.0,1475.0,2897.0
28446,1331.0,1475.0,2897.0
28447,2337.0,1475.0,2897.0
28448,2337.0,1475.0,2897.0
28449,2337.0,1475.0,2897.0
28450,2337.0,1475.0,2897.0
28451,2337.0,1475.0,2897.0
28452,2337.0,1475.0,2897.0
28453,2337.0,1475.0,2897.0
28454,2337.0,1475.0,2897.0
28455,2337.0,1475.0,2897.0
28456,2337.0,1475.0,2897.0
28457,2337.0,1475.0,2897.0
28458,2337.0,1475.0,2897.0
28459,2337.0,680.0,2897.0
28460,2337.0,680.0,2897.0
28461,2337.0,680.0,2897.0
28462,2337.0,554.0,2897.0
28463,2337.0,554.0,2897.0
28464,2337.0,554.0,2897.0
28465,2337.0,554.0,2897.0
28466,2337.0,554.0,2897.0
28467,2337.0,554.0,2897.0
28468,2337.0,483.0,2897.0
28469,2337.0,483.0,2897.0
28470,978.0,483.0,2897.0
28471,978.0,483.0,2897.0
28472,1140.0,483.0,2897.0
28473,1140.0,483.0,2897.0
28474,1140.0,483.0,2897.0
28475,1140.0,483.0,2897.0
28476,1264.0,483.0,2897.0
28477,1264.0,483.0,2897.0
28478,1421.0,483.0,2897.0
28479,1421.0,483.0,2897.0
28480,1492.0,483.0,2897.0
28481,475.0,483.0,2897.0
28482,880.0,483.0,2897.0
28483,880.0,483.0,2897.0
28484,880.0,483.0,2897.0
28485,880.0,483.0,2897.0
28486,880.0,483.0,2897.0
28487,880.0,483.0,2897.0
28488,794.0,483.0,2897.0
28489,794.0,483.0,2897.0
28490,794.0,483.0,2897.0
28491,1105.0,483.0,2897.0
28492,1105.0,483.0,2897.0
28493,1105.0,483.0,2897.0
28494,1105.0,483.0,2897.0
28495,1105.0,483.0,2897.0
28496,1105.0,483.0,2897.0
28497,1105.0,483.0,2897.0
28498,1105.0,483.0,2897.0
28499,529.0,483.0,2897.0
28500,529.0,483.0,2897.0
28501,529.0,483.0,2897.0
28502,529.0,483.0,2897.0
28503,529.0,483.0,2897.0
28504,529.0,483.0,2897.0
28505,827.0,483.0,2897.0
28506,827.0,483.0,2897.0
28507,1593.0,483.0,2897.0
28508,1593.0,483.0,2897.0
28509,1593.0,483.0,2897.0
28510,1593.0,483.0,2897.0
28511,1593.0,483.0,2897.0
28512,1593.0,483.0,2897.0
28513,1593.0,483.0,2897.0
28514,1593.0,483.0,2897.0
28515,1593.0,483.0,2897.0
28516,1593.0,483.0,2897.0
28517,1593.0,483.0,2897.0
28518,1593.0,483.0,2897.0
28519,990.0,483.0,2897.0
28520,990.0,483.0,2897.0
28521,990.0,483.0,2897.0
28522,1852.0,483.0,2897.0
28523,1852.0,483.0,2897.0
28524,1852.0,483.0,2897.0
28525,1852.0,483.0,2897.0
28526,1185.0,483.0,2897.0
28527,1185.0,483.0,2897.0
28528,1185.0,483.0,2897.0
28529,1185.0,483.0,2897.0
28530,726.0,483.0,2897.0
28531,726.0,483.0,2897.0
28532,1405.0,483.0,2897.0
28533,1405.0,483.0,2897.0
28534,1405.0,483.0,2897.0
28535,1405.0,483.0,2897.0
28536,1405.0,483.0,2897.0
28537,1405.0,483.0,2897.0
28538,1405.0,483.0,2897.0
28539,1405.0,483.0,2897.0
28540,1405.0,483.0,2897.0
28541,1405.0,483.0,2897.0
28542,1405.0,483.0,2897.0
28543,1405.0,483.0,2897.0
28544,1405.0,483.0,2897.0
28545,1405.0,483.0,2897.0
28546,1405.0,483.0,2897.0
28547,1165.0,483.0,2897.0
28548,1165.0,483.0,2897.0
28549,1165.0,483.0,2897.0
28550,1165.0,483.0,2897.0
28551,1602.0,483.0,2897.0
28552,1602.0,483.0,2897.0
28553,567.0,483.0,2897.0
28554,567.0,483.0,2897.0
28555,567.0,483.0,2897.0
28556,567.0,483.0,2897.0
28557,567.0,483.0,2897.0
28558,567.0,483.0,2897.0
29898,273.0,1116.0,806.0
29899,273.0,708.0,806.0
29900,273.0,523.0,806.0
29901,273.0,523.0,806.0
29902,273.0,523.0,806.0
29903,273.0,523.0,806.0
29904,273.0,523.0,806.0
29905,273.0,523.0,806.0
29906,273.0,523.0,806.0
29907,273.0,523.0,1013.0
29908,273.0,523.0,1013.0
29909,273.0,523.0,1013.0
29910,273.0,523.0,1013.0
29911,273.0,523.0,1013.0
29912,273.0,523.0,1013.0
29913,273.0,523.0,1013.0
29914,114.0,523.0,1013.0
29915,238.0,523.0,1013.0
29916,238.0,523.0,1013.0
29917,238.0,523.0,1013.0
29918,238.0,951.0,1013.0
29919,238.0,951.0,1013.0
29920,238.0,951.0,1013.0
29921,238.0,951.0,1013.0
29922,238.0,951.0,1013.0
29923,238.0,951.0,1013.0
29924,238.0,478.0,1013.0
29925,238.0,997.0,1013.0
29926,238.0,789.0,1013.0
29927,238.0,789.0,1013.0
29928,238.0,789.0,1013.0
29929,238.0,789.0,1013.0
29930,238.0,789.0,1013.0
29931,238.0,789.0,1013.0
29932,238.0,789.0,1013.0
29933,238.0,662.0,1013.0
29934,238.0,1203.0,634.0
29935,238.0,545.0,634.0
29936,238.0,443.0,634.0
29937,238.0,737.0,634.0
29938,238.0,432.0,634.0
29939,238.0,432.0,634.0
29940,238.0,737.0,634.0
29941,238.0,737.0,634.0
29942,238.0,364.0,634.0
29943,238.0,364.0,634.0
29944,238.0,1457.0,634.0
29945,238.0,1457.0,634.0
29946,238.0,1457.0,634.0
29947,238.0,1457.0,634.0
29948,238.0,1000.0,634.0
29949,742.0,1000.0,634.0
29950,742.0,712.0,634.0
29951,742.0,3493.0,634.0
29952,742.0,3493.0,634.0
29953,474.0,3307.0,634.0
29954,474.0,3307.0,634.0
29955,474.0,924.0,634.0
29956,461.0,924.0,634.0
29957,461.0,924.0,634.0
29958,461.0,1137.0,634.0
29959,461.0,1137.0,634.0
29960,461.0,1137.0,634.0
29961,461.0,1137.0,634.0
29962,461.0,1137.0,634.0
29963,461.0,1137.0,1408.0
29964,461.0,1137.0,1408.0
29965,461.0,1137.0,1408.0
29966,461.0,1137.0,1408.0
29967,461.0,1137.0,1408.0
29968,461.0,1137.0,1191.0
29969,461.0,1137.0,1191.0
29970,461.0,1137.0,1191.0
29971,461.0,1137.0,1191.0
29972,461.0,1137.0,1191.0
29973,461.0,1137.0,1191.0
29974,461.0,1137.0,1191.0
29975,889.0,1137.0,1191.0
29976,889.0,1137.0,1191.0
29977,889.0,1137.0,1191.0
29978,401.0,1137.0,1191.0
29979,401.0,1137.0,1191.0
29980,401.0,1137.0,1191.0
29981,758.0,1137.0,1191.0
29982,758.0,1137.0,1191.0
29983,758.0,1137.0,1191.0
29984,233.0,1513.0,1191.0
29985,233.0,1513.0,1191.0
29986,233.0,754.0,1191.0
29987,233.0,1423.0,1191.0
29988,342.0,1423.0,1191.0
29989,340.0,1423.0,1191.0
29990,340.0,1423.0,1191.0
29991,572.0,1423.0,1191.0
29992,572.0,1423.0,1191.0
29993,572.0,1423.0,1191.0
29994,572.0,1423.0,1191.0
29995,572.0,874.0,1191.0
29996,572.0,661.0,1191.0
29997,572.0,2323.0,1191.0
29998,572.0,2234.0,1191.0
29999,572.0,816.0,1191.0
30000,572.0,816.0,1191.0
30001,572.0,816.0,1191.0
30002,572.0,816.0,1191.0
30003,572.0,816.0,1191.0
30004,572.0,3126.0,1191.0
30005,572.0,1825.0,1191.0
30006,572.0,942.0,1191.0
30007,311.0,942.0,1191.0
30008,311.0,942.0,1191.0
30009,311.0,942.0,1191.0
30010,311.0,942.0,1191.0
30011,327.0,942.0,1191.0
30012,327.0,942.0,1191.0
30013,327.0,942.0,1191.0
30014,327.0,942.0,1191.0
30015,280.0,942.0,1191.0
30016,280.0,942.0,1191.0
30017,280.0,942.0,1191.0
30018,280.0,942.0,1191.0
30019,280.0,2205.0,1191.0
30020,280.0,2205.0,1191.0
30021,219.0,2205.0,1191.0
30022,219.0,2205.0,1191.0
30023,219.0,2205.0,1191.0
30024,219.0,2205.0,1191.0
30025,219.0,2205.0,1191.0
30026,219.0,2205.0,1191.0
30027,219.0,2205.0,1191.0
30028,219.0,2205.0,1191.0
30029,219.0,2205.0,1191.0
30030,308.0,2205.0,1191.0
30031,308.0,2205.0,1191.0
30032,308.0,2205.0,1191.0
30033,308.0,2205.0,1191.0
30034,308.0,2205.0,1191.0
30035,308.0,2205.0,1191.0
30036,232.0,2205.0,1191.0
30037,232.0,2205.0,1191.0
30038,232.0,2205.0,1191.0
30039,232.0,2205.0,431.0
30040,232.0,2205.0,431.0
30041,232.0,2205.0,431.0
30042,232.0,2205.0,431.0
30043,674.0,2205.0,431.0
30044,674.0,2205.0,431.0
30045,674.0,2205.0,626.0
30046,235.0,2205.0,626.0
30047,291.0,2205.0,626.0
30048,291.0,1058.0,626.0
30049,129.0,1058.0,626.0
31538,210.0,727.0,896.0
31539,210.0,727.0,896.0
31540,210.0,814.0,896.0
31541,210.0,814.0,896.0
31542,210.0,1692.0,896.0
31543,210.0,595.0,896.0
31544,210.0,595.0,896.0
31545,210.0,609.0,896.0
32675,208.0,373.0,319.0
32676,208.0,373.0,319.0
32677,208.0,373.0,319.0
32678,208.0,373.0,319.0
32679,208.0,373.0,319.0
32680,208.0,373.0,319.0
32681,208.0,373.0,319.0
32682,208.0,701.0,319.0
32683,208.0,701.0,344.0
32684,208.0,155.0,344.0
32685,208.0,528.0,344.0
32686,208.0,368.0,344.0
32687,208.0,368.0,344.0
32688,208.0,368.0,344.0
32689,311.0,368.0,344.0
32690,311.0,368.0,226.0
32691,245.0,368.0,359.0
32692,245.0,368.0,514.0
32693,245.0,368.0,501.0
32694,466.0,368.0,501.0
32695,466.0,368.0,501.0
32696,181.0,368.0,501.0
32697,185.0,368.0,501.0
32698,185.0,368.0,501.0
32699,185.0,368.0,501.0
32700,185.0,368.0,501.0
32701,185.0,368.0,193.0
32702,185.0,853.0,193.0
32703,185.0,853.0,193.0
32704,185.0,486.0,193.0
32705,185.0,486.0,193.0
32706,185.0,486.0,193.0
32707,185.0,486.0,193.0
32708,185.0,486.0,193.0
32709,185.0,463.0,193.0
32710,185.0,463.0,193.0
32711,185.0,463.0,193.0
32712,185.0,316.0,193.0
32713,185.0,316.0,193.0
32714,185.0,316.0,193.0
32715,185.0,316.0,193.0
32716,185.0,316.0,193.0
32717,185.0,316.0,193.0
32718,185.0,316.0,193.0
32719,185.0,316.0,193.0
32720,185.0,316.0,193.0
32721,185.0,316.0,193.0
32722,185.0,316.0,193.0
32723,185.0,316.0,193.0
32724,185.0,316.0,193.0
32725,185.0,316.0,193.0
32726,185.0,316.0,193.0
32727,185.0,693.0,193.0
32728,185.0,693.0,193.0
32729,185.0,693.0,193.0
32730,185.0,693.0,193.0
32731,185.0,693.0,193.0
32732,185.0,693.0,193.0
32733,185.0,693.0,193.0
32734,185.0,400.0,193.0
32735,185.0,400.0,193.0
32736,185.0,925.0,193.0
32737,185.0,925.0,193.0
32738,185.0,469.0,193.0
32739,185.0,469.0,193.0
32740,185.0,469.0,193.0
32741,185.0,469.0,193.0
32742,185.0,469.0,193.0
32743,185.0,469.0,193.0
32744,185.0,469.0,193.0
32745,185.0,469.0,193.0
32746,185.0,469.0,193.0
32747,185.0,469.0,193.0
32748,185.0,469.0,193.0
32749,185.0,469.0,193.0
32750,185.0,469.0,193.0
32751,185.0,469.0,193.0
32752,185.0,469.0,193.0
32753,185.0,469.0,193.0
32754,185.0,295.0,193.0
32755,185.0,295.0,193.0
32756,185.0,295.0,193.0
32757,185.0,295.0,193.0
32758,185.0,642.0,193.0
32759,185.0,642.0,193.0
32760,185.0,714.0,193.0
32761,185.0,714.0,193.0
32762,185.0,714.0,193.0
32763,185.0,714.0,193.0
32764,185.0,714.0,193.0
32765,185.0,714.0,193.0
32766,185.0,714.0,193.0
32767,185.0,714.0,193.0
32768,185.0,714.0,193.0
32769,185.0,714.0,193.0
32770,185.0,714.0,193.0
32771,185.0,714.0,193.0
32772,185.0,714.0,193.0
32773,185.0,108.0,193.0
32774,185.0,108.0,193.0
32775,185.0,108.0,193.0
32776,185.0,997.0,193.0
32777,185.0,997.0,193.0
32778,185.0,662.0,193.0
32779,185.0,662.0,193.0
32780,185.0,746.0,193.0
32781,185.0,746.0,193.0
32782,185.0,746.0,193.0
32783,185.0,746.0,193.0
32784,185.0,547.0,193.0
32785,185.0,547.0,193.0
32786,185.0,547.0,193.0
32787,185.0,547.0,193.0
32788,185.0,547.0,193.0
32789,185.0,547.0,193.0
32790,185.0,547.0,193.0
32791,185.0,547.0,193.0
32792,185.0,547.0,193.0
32793,185.0,547.0,193.0
32794,185.0,547.0,193.0
32795,185.0,547.0,193.0
32796,185.0,519.0,193.0
32797,185.0,519.0,193.0
32798,185.0,519.0,193.0
32799,185.0,477.0,193.0
32800,185.0,477.0,193.0
32801,185.0,815.0,193.0
32802,185.0,815.0,193.0
32803,185.0,815.0,193.0
32804,185.0,815.0,193.0
32805,185.0,815.0,193.0
32806,185.0,815.0,193.0
32807,185.0,815.0,193.0
32808,185.0,815.0,193.0
32809,185.0,815.0,193.0
32810,185.0,815.0,193.0
32811,185.0,815.0,193.0
32812,185.0,390.0,193.0
32813,185.0,390.0,193.0
32814,185.0,390.0,193.0
34449,436.0,293.0,255.0
34450,321.0,293.0,255.0
34451,321.0,293.0,181.0
34452,321.0,293.0,181.0
34453,321.0,293.0,181.0
34454,531.0,293.0,181.0
34455,531.0,272.0,181.0
34456,531.0,272.0,181.0
34457,531.0,289.0,181.0
34458,531.0,161.0,181.0
34459,500.0,331.0,181.0
34460,598.0,331.0,181.0
34461,598.0,331.0,181.0
34462,598.0,331.0,181.0
34463,598.0,331.0,181.0
34464,598.0,331.0,181.0
34465,483.0,331.0,181.0
34466,268.0,331.0,181.0
34467,268.0,331.0,181.0
34468,268.0,331.0,181.0
34469,268.0,349.0,181.0
34470,268.0,349.0,181.0
34471,268.0,349.0,181.0
34472,268.0,349.0,181.0
34473,268.0,349.0,177.0
34474,268.0,349.0,177.0
34475,268.0,354.0,177.0
34476,268.0,354.0,177.0
34477,268.0,354.0,166.0
34478,268.0,354.0,166.0
34479,268.0,354.0,166.0
34480,920.0,214.0,166.0
34481,920.0,214.0,166.0
34482,920.0,214.0,166.0
34483,920.0,214.0,166.0
34484,920.0,214.0,166.0
34485,920.0,214.0,166.0
34486,920.0,214.0,166.0
34487,920.0,214.0,165.0
34488,920.0,214.0,165.0
34489,920.0,214.0,165.0
34490,920.0,214.0,256.0
34491,920.0,214.0,256.0
34492,920.0,214.0,156.0
34493,920.0,214.0,156.0
34494,920.0,214.0,156.0
34495,9920.0,214.0,262.0
34496,920.0,214.0,457.0
34497,920.0,214.0,457.0
34498,603.0,214.0,457.0
34499,603.0,214.0,457.0
34500,59200.0,214.0,230.0
34501,603.0,214.0,154.0
34502,603.0,214.0,154.0
34503,603.0,214.0,154.0
34504,603.0,214.0,154.0
34505,603.0,214.0,154.0
34506,603.0,214.0,395.0
34507,603.0,214.0,395.0
34508,603.0,214.0,395.0
34509,603.0,214.0,179.0
34510,603.0,214.0,179.0
34511,603.0,214.0,179.0
34512,603.0,214.0,179.0
34513,603.0,214.0,179.0
34514,603.0,214.0,179.0
34515,603.0,214.0,179.0
34516,603.0,214.0,179.0
34517,603.0,214.0,179.0
34518,6603.0,214.0,179.0
34519,944.0,214.0,609.0
34520,944.0,214.0,609.0
34521,944.0,214.0,609.0
34522,944.0,214.0,609.0
34523,944.0,214.0,609.0
34524,944.0,214.0,609.0
34525,944.0,214.0,609.0
34526,944.0,214.0,609.0
34527,944.0,214.0,624.0
34528,944.0,214.0,624.0
34529,944.0,214.0,624.0
34530,944.0,214.0,624.0
34531,944.0,214.0,221.0
34532,944.0,214.0,221.0
34533,944.0,214.0,514.0
34534,944.0,214.0,500.0
34535,944.0,214.0,162.0
34536,944.0,214.0,162.0
34537,94444.0,214.0,162.0
34538,944.0,214.0,162.0
34539,944.0,214.0,162.0
34540,944.0,214.0,162.0
34541,944.0,214.0,162.0
34542,944.0,214.0,162.0
34543,286.0,214.0,162.0
34544,286.0,214.0,162.0
34545,286.0,214.0,162.0
34546,286.0,214.0,162.0
34547,286.0,214.0,162.0
34548,551.0,214.0,162.0
34549,551.0,214.0,162.0
34550,551.0,214.0,162.0
34551,551.0,214.0,162.0
34552,551.0,214.0,226.0
34553,551.0,214.0,231.0
34554,551.0,214.0,231.0
34555,551.0,214.0,231.0
34556,551.0,214.0,231.0
34557,551.0,214.0,231.0
34558,551.0,214.0,231.0
34559,551.0,214.0,231.0
34560,551.0,214.0,393.0
34561,551.0,214.0,393.0
34562,551.0,214.0,226.0
34563,457.0,214.0,226.0
34564,457.0,214.0,226.0
34565,457.0,214.0,226.0
34566,457.0,214.0,226.0
34567,457.0,214.0,226.0
34568,457.0,214.0,274.0
34569,457.0,214.0,274.0
34570,457.0,214.0,274.0
34571,457.0,214.0,229.0
34572,457.0,214.0,229.0
34573,646.0,214.0,229.0
34574,646.0,214.0,229.0
34575,646.0,214.0,229.0
34576,646.0,214.0,229.0
34577,646.0,214.0,229.0
34578,646.0,214.0,229.0
34579,646.0,214.0,229.0
34580,646.0,214.0,229.0
34581,646.0,214.0,229.0
34582,646.0,214.0,229.0
34583,646.0,214.0,229.0
34584,646.0,214.0,229.0
34585,646.0,214.0,229.0
34586,646.0,214.0,229.0
34587,646.0,214.0,229.0
34588,646.0,214.0,229.0
34589,646.0,214.0,229.0
34590,646.0,214.0,229.0
34591,646.0,214.0,229.0
34592,28.0,214.0,229.0
34593,646.0,214.0,229.0
34594,646.0,214.0,229.0
34595,646.0,214.0,229.0
36238,8844.0,2817.0,1224.0
36239,844.0,939.0,1224.0
36240,844.0,1091.0,1224.0
36241,844.0,1359.0,1224.0
36242,844.0,2089.0,1224.0
36243,844.0,1026.0,1224.0
36244,844.0,1699.0,1224.0
36245,844.0,1215.0,1224.0
36246,844.0,2208.0,1224.0
36247,844.0,2208.0,1224.0
36248,844.0,2208.0,1224.0
36249,844.0,799.0,1224.0
36250,844.0,799.0,1224.0
36251,844.0,799.0,1224.0
36252,622.0,799.0,1224.0
36253,622.0,799.0,1224.0
36254,792.0,799.0,1224.0
36255,792.0,2298.0,1224.0
36256,792.0,1092.0,1224.0
36257,792.0,1092.0,1224.0
36258,792.0,1213.0,1224.0
36259,792.0,617.0,1224.0
36260,418.0,617.0,1224.0
36261,418.0,617.0,1224.0
36262,8.0,617.0,595.0
36263,41011.0,617.0,595.0
36264,1011.0,617.0,2060.0
36265,1011.0,617.0,2060.0
36266,527.0,617.0,2060.0
36267,527.0,617.0,2060.0
36268,527.0,617.0,2060.0
36269,711.0,617.0,2060.0
36270,813.0,2167.0,1874.0
36271,813.0,2167.0,1874.0
36272,813.0,2167.0,1874.0
36273,813.0,2167.0,1874.0
36274,813.0,2167.0,1874.0
36275,813.0,996.0,1874.0
36276,813.0,996.0,1874.0
36277,813.0,1464.0,1874.0
36278,813.0,897.0,1874.0
36279,813.0,897.0,1874.0
36280,80.0,897.0,1874.0
36281,813.0,1633.0,1189.0
36282,813.0,1633.0,1189.0
36283,813.0,1633.0,1189.0
36284,813.0,1633.0,1189.0
36285,813.0,1633.0,1189.0
36286,813.0,883.0,1189.0
36287,813.0,2179.0,1189.0
36288,3.0,681.0,1189.0
36289,813.0,1231.0,1189.0
36290,881813.0,1231.0,1189.0
36291,813.0,1231.0,1189.0
36292,813.0,1231.0,2413.0
36293,813.0,1231.0,2413.0
36294,813.0,1007.0,2413.0
36295,813.0,731.0,2413.0
36296,813.0,731.0,2413.0
36297,813.0,731.0,2413.0
36298,813.0,731.0,2413.0
36299,813.0,731.0,2413.0
36300,813.0,731.0,2413.0
36301,813.0,731.0,2413.0
36302,813.0,665.0,2413.0
36303,813.0,665.0,2413.0
36304,813.0,763.0,2413.0
36305,813.0,763.0,2413.0
36306,813.0,763.0,2413.0
36307,321.0,763.0,2413.0
36308,321.0,1411.0,2526.0
36309,321.0,1411.0,2526.0
36310,321.0,1411.0,2526.0
36311,321.0,1411.0,1526.0
36312,321.0,1411.0,1526.0
36313,321.0,1411.0,1087.0
36314,321.0,1411.0,1087.0
36315,321.0,1411.0,1087.0
36316,321.0,1411.0,1087.0
36317,321.0,1402.0,1087.0
36318,321.0,1199.0,1087.0
36319,321.0,1507.0,1087.0
36320,321.0,1507.0,1087.0
36321,321.0,2019.0,1087.0
36322,321.0,2019.0,1087.0
36323,321.0,2019.0,1087.0
36324,321.0,2019.0,1087.0
36325,321.0,1576.0,1087.0
36326,595.0,1576.0,1087.0
36327,595.0,1576.0,1087.0
36328,595.0,1576.0,1087.0
36329,595.0,1576.0,1087.0
36330,221.0,1576.0,1087.0
36331,221.0,1516.0,1087.0
36332,221.0,1516.0,1087.0
36333,221.0,1516.0,1087.0
36334,221.0,1516.0,1087.0
36335,221.0,1516.0,768.0
36336,221.0,1516.0,768.0
36337,221.0,927.0,768.0
36338,80.0,927.0,768.0
36339,221.0,927.0,768.0
36340,221.0,927.0,768.0
36341,221.0,927.0,768.0
36342,221.0,927.0,768.0
36343,221.0,927.0,768.0
36344,221.0,927.0,768.0
36345,221.0,927.0,768.0
36346,767.0,927.0,768.0
36347,767.0,927.0,768.0
36348,302.0,927.0,768.0
36349,302.0,927.0,768.0
36350,499.0,927.0,768.0
36351,499.0,1837.0,768.0
36352,499.0,956.0,768.0
36353,499.0,956.0,768.0
36354,499.0,1541.0,768.0
36355,499.0,1541.0,768.0
36356,525.0,1541.0,768.0
36357,525.0,1541.0,768.0
36358,525.0,908.0,768.0
36359,525.0,908.0,768.0
36360,525.0,908.0,768.0
36361,525.0,908.0,768.0
36362,525.0,908.0,768.0
36363,894.0,908.0,768.0
36364,894.0,843.0,768.0
36365,262.0,843.0,768.0
36366,262.0,843.0,768.0
36367,262.0,843.0,1513.0
36368,262.0,843.0,1513.0
36369,262.0,843.0,1513.0
36370,262.0,843.0,1513.0
36371,262.0,843.0,1513.0
36372,262.0,843.0,1513.0
36373,262.0,2314.0,1513.0
36374,262.0,2314.0,1513.0
36375,262.0,2314.0,1513.0
36376,615.0,2314.0,1513.0
36377,615.0,2314.0,1513.0
38152,587.0,1343.0,2765.0
38153,769.0,1343.0,2765.0
38154,769.0,1343.0,2765.0
38155,769.0,1343.0,2765.0
38156,769.0,1343.0,2765.0
38157,769.0,1343.0,2765.0
38158,769.0,1343.0,2765.0
38159,769.0,1343.0,4198.0
38160,769.0,1343.0,4198.0
38161,769.0,843.0,4198.0
38162,769.0,843.0,4198.0
38163,769.0,843.0,4198.0
38164,769.0,843.0,4198.0
38165,769.0,843.0,4198.0
38166,769.0,843.0,4198.0
38167,769.0,843.0,4198.0
38168,769.0,843.0,4198.0
38169,769.0,843.0,4198.0
38170,775.0,843.0,4198.0
38171,775.0,843.0,4198.0
38172,775.0,843.0,4198.0
38173,775.0,430.0,4198.0
38174,701.0,2344.0,4198.0
38175,356.0,2344.0,4198.0
38176,356.0,2344.0,4198.0
38177,356.0,2344.0,4198.0
38178,356.0,2344.0,4198.0
38179,356.0,2344.0,4198.0
38180,356.0,2344.0,4198.0
38181,356.0,2344.0,4198.0
38182,910.0,2344.0,1380.0
38183,356.0,2344.0,1380.0
38184,930.0,2344.0,1380.0
38185,930.0,2344.0,1380.0
38186,930.0,2344.0,1380.0
38187,930.0,2344.0,1380.0
38188,930.0,2344.0,1380.0
38189,575.0,2344.0,1380.0
38190,575.0,2344.0,1380.0
38191,575.0,2344.0,1380.0
38192,575.0,2344.0,1380.0
38193,575.0,2344.0,1380.0
38194,575.0,2344.0,1380.0
38195,575.0,2344.0,1380.0
38196,575.0,2344.0,1380.0
38197,575.0,2344.0,1055.0
38198,575.0,2344.0,1640.0
38199,575.0,2344.0,1640.0
38200,651.0,2344.0,1640.0
38201,651.0,2344.0,1565.0
38202,651.0,2344.0,2695.0
38203,651.0,2344.0,2695.0
38204,651.0,2344.0,2612.0
38205,725.0,2344.0,2612.0
38206,725.0,2344.0,2612.0
38207,725.0,2344.0,2612.0
38208,725.0,2344.0,2612.0
38209,725.0,2344.0,2247.0
38210,725.0,2344.0,2247.0
38211,530.0,2344.0,1385.0
38212,530.0,2344.0,1385.0
38213,530.0,2344.0,1385.0
38214,530.0,2344.0,1385.0
38215,1052.0,2344.0,1385.0
38216,1052.0,2344.0,1385.0
38217,1006.0,2344.0,1385.0
38218,1006.0,1577.0,1385.0
38219,1006.0,1577.0,1385.0
38220,1006.0,1668.0,1385.0
38221,1006.0,1668.0,1385.0
38222,1006.0,1668.0,1200.0
38223,1006.0,1668.0,1200.0
38224,604.0,1668.0,1200.0
38225,604.0,1668.0,1200.0
38226,604.0,1668.0,1200.0
38227,825.0,1668.0,1200.0
38228,825.0,1675.0,1200.0
38229,825.0,1675.0,1200.0
38230,513.0,1675.0,1200.0
38231,508.0,1675.0,1887.0
38232,508.0,1619.0,1887.0
38233,51.0,976.0,1887.0
38234,530.0,976.0,1887.0
38235,530.0,976.0,1887.0
38236,530.0,976.0,1887.0
38237,530.0,976.0,1887.0
38238,530.0,976.0,1887.0
38239,530.0,976.0,1625.0
38240,530.0,976.0,1625.0
38241,530.0,976.0,1625.0
38242,530.0,976.0,1625.0
38243,530.0,976.0,1625.0
38244,530.0,976.0,1625.0
38245,530.0,976.0,1625.0
38246,530.0,976.0,1625.0
38247,530.0,1126.0,1625.0
38248,530.0,1126.0,1625.0
38249,290.0,1126.0,1349.0
38250,290.0,1126.0,1349.0
38251,290.0,1126.0,1349.0
38252,474.0,1126.0,1349.0
38253,664.0,1126.0,1349.0
38254,664.0,1126.0,1349.0
38255,664.0,1126.0,1349.0
38256,664.0,733.0,1349.0
38257,664.0,733.0,1359.0
38258,664.0,1572.0,1359.0
38259,664.0,1572.0,1359.0
38260,664.0,1032.0,1359.0
38261,664.0,1032.0,1359.0
38262,664.0,1032.0,1359.0
38263,664.0,1032.0,1359.0
38264,664.0,1032.0,2525.0
38265,664.0,1032.0,1675.0
38266,664.0,658.0,1675.0
38267,664.0,658.0,1675.0
38268,664.0,658.0,1675.0
38269,664.0,658.0,1675.0
38270,664.0,658.0,1675.0
38271,664.0,658.0,1998.0
38272,664.0,658.0,2585.0
38273,664.0,658.0,2585.0
38274,664.0,514.0,2585.0
38275,664.0,514.0,2585.0
38276,664.0,514.0,2585.0
38277,664.0,514.0,2585.0
38278,664.0,514.0,2585.0
38279,1261.0,514.0,2585.0
38280,1261.0,514.0,2585.0
38281,1261.0,514.0,2585.0
38282,1261.0,514.0,2585.0
38283,1261.0,1179.0,2134.0
38284,1261.0,1179.0,2134.0
38285,1261.0,1179.0,2134.0
38286,1261.0,1179.0,1348.0
38287,1261.0,1179.0,1348.0
38288,53261.0,1179.0,2015.0
38289,11261.0,1179.0,2015.0
38290,1261.0,1176.0,2015.0
38291,1261.0,1176.0,2430.0
38292,1261.0,1176.0,2430.0
38293,1261.0,1176.0,2430.0
39956,342.0,107.0,641.0
39957,342.0,107.0,641.0
39958,342.0,107.0,641.0
39959,342.0,107.0,641.0
39960,342.0,107.0,641.0
39961,342.0,107.0,641.0
39962,420.0,107.0,641.0
39963,420.0,107.0,641.0
39964,420.0,107.0,641.0
39965,420.0,143.0,641.0
39966,420.0,143.0,641.0
39967,420.0,143.0,641.0
39968,367.0,143.0,641.0
39969,367.0,143.0,641.0
39970,367.0,143.0,641.0
39971,367.0,143.0,641.0
39972,918.0,263.0,641.0
39973,863.0,263.0,641.0
39974,863.0,175.0,641.0
39975,863.0,175.0,641.0
39976,863.0,175.0,641.0
39977,863.0,175.0,641.0
39978,863.0,182.0,641.0
39979,863.0,140.0,641.0
39980,863.0,140.0,641.0
39981,863.0,140.0,641.0
39982,863.0,140.0,641.0
39983,863.0,140.0,641.0
39984,863.0,140.0,641.0
39985,863.0,140.0,641.0
39986,863.0,140.0,641.0
39987,863.0,140.0,641.0
39988,863.0,77.0,641.0
39989,759.0,77.0,641.0
39990,759.0,107.0,641.0
39991,759.0,114.0,641.0
39992,759.0,114.0,641.0
39993,759.0,114.0,641.0
39994,759.0,114.0,641.0
39995,759.0,114.0,641.0
39996,759.0,114.0,641.0
39997,759.0,114.0,641.0
39998,759.0,114.0,641.0
39999,759.0,114.0,641.0
40000,759.0,114.0,758.0
40001,759.0,114.0,758.0
40002,759.0,114.0,758.0
40003,759.0,114.0,758.0
40004,759.0,114.0,758.0
40005,759.0,208.0,758.0
40006,759.0,208.0,758.0
40007,759.0,208.0,758.0
40008,759.0,208.0,758.0
40009,759.0,208.0,758.0
40010,759.0,208.0,758.0
40011,444.0,208.0,758.0
40012,444.0,208.0,758.0
40013,444.0,208.0,758.0
40014,444.0,208.0,758.0
40015,444.0,208.0,758.0
40016,551.0,208.0,758.0
40017,551.0,208.0,758.0
40018,551.0,208.0,758.0
40019,551.0,208.0,758.0
40020,267.0,208.0,758.0
40021,267.0,208.0,758.0
40022,267.0,208.0,758.0
40023,267.0,208.0,758.0
40024,267.0,208.0,758.0
40025,267.0,208.0,758.0
40026,267.0,208.0,758.0
40027,440.0,208.0,758.0
40028,440.0,208.0,758.0
40029,821.0,208.0,758.0
40030,821.0,208.0,758.0
40031,821.0,208.0,758.0
40032,726.0,208.0,758.0
40033,726.0,208.0,758.0
40034,726.0,208.0,758.0
40035,726.0,208.0,758.0
40036,726.0,208.0,758.0
40037,726.0,208.0,758.0
40038,726.0,208.0,758.0
40039,726.0,208.0,758.0
40040,726.0,208.0,758.0
40041,726.0,208.0,758.0
40042,726.0,208.0,758.0
40043,726.0,208.0,758.0
40044,726.0,208.0,758.0
40045,726.0,208.0,758.0
40046,726.0,208.0,758.0
40047,743.0,208.0,758.0
40048,743.0,208.0,758.0
40049,743.0,208.0,758.0
40050,743.0,208.0,758.0
40051,743.0,208.0,758.0
40052,743.0,208.0,758.0
40053,743.0,208.0,758.0
40054,743.0,208.0,758.0
40055,743.0,208.0,758.0
40056,743.0,208.0,758.0
40057,743.0,208.0,758.0
40058,743.0,208.0,758.0
40059,743.0,208.0,758.0
40060,940.0,208.0,758.0
40061,940.0,208.0,758.0
40062,940.0,208.0,758.0
40063,940.0,90.0,758.0
40064,940.0,90.0,758.0
40065,940.0,90.0,758.0
40066,940.0,90.0,758.0
40067,940.0,90.0,758.0
40068,940.0,90.0,758.0
40069,940.0,90.0,758.0
40070,940.0,90.0,758.0
40071,940.0,90.0,758.0
40072,940.0,90.0,758.0
40073,940.0,90.0,758.0
40074,940.0,90.0,758.0
40075,940.0,90.0,758.0
40076,940.0,90.0,758.0
40077,940.0,90.0,758.0
40078,940.0,90.0,758.0
40079,940.0,90.0,758.0
40080,940.0,90.0,758.0
40081,940.0,90.0,758.0
40082,940.0,90.0,758.0
40083,940.0,90.0,758.0
40084,1428.0,90.0,758.0
40085,1428.0,90.0,758.0
40086,1428.0,90.0,758.0
40087,1428.0,90.0,758.0
40088,1428.0,90.0,758.0
40089,1428.0,90.0,758.0
40090,1428.0,90.0,758.0
40091,1428.0,90.0,758.0
40092,1428.0,90.0,758.0
40093,1428.0,90.0,758.0
40094,1428.0,90.0,758.0
40095,1428.0,90.0,758.0
40096,1428.0,90.0,758.0
40097,1428.0,90.0,758.0
40098,1428.0,165.0,758.0
40099,1428.0,165.0,758.0
40100,1428.0,165.0,758.0
40101,1428.0,165.0,758.0
40102,1428.0,165.0,758.0
40103,1428.0,165.0,758.0
40104,1428.0,165.0,758.0
40105,1428.0,165.0,758.0
40106,1428.0,165.0,758.0
40107,1428.0,165.0,758.0
40108,1428.0,165.0,758.0
40109,1428.0,165.0,758.0
40110,1428.0,165.0,758.0
40111,1428.0,165.0,758.0
43050,3511.0,1442.0,732.0
43051,2942.0,1442.0,732.0
43052,2340.0,1442.0,732.0
43053,2340.0,1442.0,732.0
43054,2148.0,1442.0,732.0
43055,2148.0,1442.0,732.0
43056,2029.0,1442.0,732.0
43057,2029.0,1442.0,732.0
43058,1866.0,1442.0,732.0
43059,1866.0,1442.0,732.0
43060,2752.0,1442.0,732.0
43061,2752.0,2314.0,720.0
43062,2752.0,2314.0,720.0
43063,2752.0,2314.0,720.0
43064,3358.0,2314.0,720.0
43065,3358.0,2314.0,720.0
43066,3358.0,2314.0,720.0
43067,2446.0,2314.0,720.0
43068,2446.0,2314.0,720.0
43069,3763.0,2314.0,720.0
43070,3763.0,2314.0,720.0
43071,1340.0,2314.0,857.0
43072,1340.0,2314.0,857.0
43073,1340.0,2314.0,857.0
43074,1340.0,2314.0,857.0
43075,1340.0,2314.0,857.0
43076,2696.0,2314.0,857.0
43077,2696.0,2314.0,799.0
43078,2696.0,2314.0,799.0
43079,2696.0,2314.0,799.0
43080,2696.0,2314.0,1200.0
43081,822.0,2314.0,1200.0
43082,822.0,2314.0,1200.0
43083,3905.0,2314.0,1703.0
43084,3905.0,2314.0,1703.0
43085,3905.0,2314.0,1703.0
43086,3905.0,2314.0,1703.0
43087,3905.0,2314.0,1703.0
43088,3905.0,2314.0,1703.0
43089,3905.0,2314.0,1703.0
43090,3601.0,2314.0,1703.0
43091,3601.0,2314.0,1703.0
43092,601.0,2314.0,1703.0
43093,3.0,2314.0,1703.0
43094,36011.0,2314.0,1703.0
43095,3601.0,2314.0,1703.0
43096,3601.0,2314.0,1703.0
43097,3601.0,1775.0,1703.0
43098,3601.0,1775.0,1703.0
43099,3601.0,1775.0,1703.0
43100,3601.0,1775.0,1703.0
43101,3601.0,1775.0,1703.0
43102,3601.0,1775.0,1703.0
43103,3601.0,1775.0,1703.0
43104,3601.0,1775.0,1703.0
43105,3601.0,1775.0,1703.0
43106,3601.0,1775.0,1107.0
43107,3601.0,1775.0,1107.0
43108,3601.0,1775.0,486.0
43109,3601.0,1775.0,724.0
43110,3601.0,1775.0,1351.0
43111,3601.0,1775.0,839.0
43112,3601.0,1775.0,839.0
43113,3601.0,1285.0,839.0
43114,3601.0,1285.0,839.0
43115,3601.0,1285.0,908.0
43116,3601.0,1285.0,1746.0
43117,3601.0,1285.0,576.0
43118,3601.0,1285.0,576.0
43119,3601.0,2440.0,576.0
43120,3601.0,2440.0,576.0
43121,3601.0,2440.0,576.0
43122,3601.0,2440.0,576.0
43123,3601.0,2440.0,576.0
43124,3601.0,2440.0,576.0
43125,3155.0,2440.0,576.0
43126,3155.0,2440.0,576.0
43127,3155.0,2440.0,576.0
43128,3155.0,2440.0,576.0
43129,3795.0,2440.0,576.0
43130,3795.0,2440.0,576.0
43131,3700.0,2440.0,576.0
43132,3700.0,2440.0,576.0
43133,3700.0,2440.0,576.0
43134,3700.0,2440.0,576.0
43135,3570.0,2440.0,576.0
43136,3570.0,2440.0,1362.0
43137,3570.0,2440.0,1362.0
43138,3570.0,2440.0,1362.0
43139,3305.0,2440.0,1362.0
43140,1550.0,2440.0,1362.0
43141,36.0,2440.0,1362.0
43142,1550.0,2440.0,1362.0
43143,1550.0,2012.0,1362.0
43144,1550.0,2012.0,1362.0
43145,1550.0,2012.0,1362.0
43146,4140.0,2012.0,1362.0
43147,2993.0,2012.0,1362.0
43148,2993.0,2012.0,1362.0
43149,5121.0,2012.0,1362.0
43150,5121.0,2012.0,1362.0
43151,5121.0,2012.0,1362.0
43152,3639.0,2012.0,1362.0
43153,3639.0,2012.0,1362.0
43154,3951.0,2012.0,1362.0
43155,3951.0,2012.0,1362.0
43156,2762.0,2012.0,1362.0
43157,4118.0,2012.0,1362.0
43158,3326.0,2012.0,1362.0
43159,3326.0,2012.0,1362.0
43160,3326.0,2012.0,1362.0
43161,2996.0,2012.0,1362.0
43162,2996.0,2012.0,1362.0
43163,2996.0,2012.0,1125.0
43164,2996.0,2012.0,1125.0
43165,4174.0,2012.0,1125.0
43166,4174.0,2012.0,1125.0
43167,4174.0,1169.0,1125.0
43168,4174.0,1169.0,1125.0
43169,4174.0,1169.0,1125.0
43170,4174.0,1169.0,1125.0
43171,4174.0,1169.0,1125.0
43172,4174.0,1169.0,1125.0
43173,4174.0,1169.0,529.0
43174,4174.0,1169.0,1758.0
43175,4174.0,1169.0,1056.0
43176,4174.0,1169.0,1056.0
43177,4174.0,1169.0,1056.0
43178,4174.0,1169.0,1056.0
43179,4174.0,1169.0,707.0
43180,4174.0,1169.0,736.0
43181,4.0,2683.0,736.0
43182,417474.0,2683.0,736.0
43183,4174.0,1377.0,817.0
43184,4174.0,1377.0,817.0
43185,4174.0,1377.0,817.0
43186,4174.0,1377.0,1144.0
43187,4174.0,1377.0,785.0
43188,4174.0,2202.0,785.0
43189,4174.0,2202.0,785.0
44984,967.0,1102.0,1391.0
44985,967.0,1102.0,1391.0
44986,967.0,1102.0,1391.0
44987,967.0,1102.0,1391.0
44988,967.0,1102.0,1391.0
44989,967.0,1102.0,1391.0
44990,967.0,1102.0,1391.0
44991,967.0,1102.0,1391.0
44992,3073.0,1102.0,1391.0
44993,3073.0,1102.0,1391.0
44994,1586.0,1102.0,1391.0
44995,1586.0,1102.0,1391.0
44996,1586.0,1102.0,848.0
44997,1586.0,1102.0,848.0
44998,1586.0,1102.0,848.0
44999,1586.0,1102.0,848.0
45000,1586.0,1102.0,848.0
45001,1586.0,1102.0,848.0
45002,1586.0,1102.0,848.0
45003,1586.0,1102.0,650.0
45004,1586.0,1102.0,564.0
45005,1586.0,1102.0,564.0
45006,1586.0,1102.0,564.0
45007,1586.0,1102.0,1382.0
45008,1586.0,1102.0,1382.0
45009,1586.0,1102.0,1382.0
45010,1586.0,1102.0,1382.0
45011,1586.0,1102.0,1382.0
45012,1830.0,1102.0,1382.0
45013,1830.0,1102.0,1382.0
45014,2142.0,1102.0,1382.0
45015,2142.0,1102.0,1382.0
45016,2142.0,1102.0,1382.0
45017,2142.0,1102.0,1382.0
45018,2142.0,1102.0,1382.0
45019,2142.0,1102.0,1382.0
45020,2142.0,1102.0,1382.0
45021,2142.0,1102.0,1382.0
45022,2142.0,1102.0,1382.0
45023,2142.0,1102.0,1382.0
45024,2142.0,1499.0,1382.0
45025,2142.0,1499.0,1382.0
45026,2142.0,1499.0,1382.0
45027,2142.0,1499.0,1382.0
45028,2142.0,1499.0,1382.0
45029,2142.0,1499.0,600.0
45030,2142.0,1499.0,920.0
45031,2142.0,1499.0,1494.0
45032,2142.0,1499.0,816.0
45033,2142.0,1499.0,816.0
45034,2142.0,1499.0,816.0
45035,2142.0,1499.0,816.0
45036,2142.0,1499.0,890.0
45037,142.0,1499.0,890.0
45038,22142.0,1499.0,890.0
45039,2142.0,1499.0,1153.0
45040,2142.0,1499.0,1303.0
45041,2142.0,1499.0,497.0
45042,2142.0,1499.0,497.0
45043,2142.0,1499.0,497.0
45044,2142.0,1499.0,497.0
45045,2142.0,1499.0,497.0
45046,2142.0,1499.0,344.0
45047,2142.0,1499.0,731.0
45048,2142.0,1499.0,482.0
45049,2142.0,1499.0,482.0
45050,2142.0,1499.0,482.0
45051,2142.0,1499.0,482.0
45052,2142.0,1499.0,482.0
45053,2142.0,1499.0,1013.0
45054,2142.0,1499.0,1013.0
45055,2142.0,1499.0,1013.0
45056,22142.0,1499.0,436.0
45057,2142.0,1499.0,436.0
45058,2142.0,1499.0,436.0
45059,2142.0,1499.0,436.0
45060,2142.0,1499.0,436.0
45061,2142.0,1499.0,436.0
45062,2142.0,1499.0,436.0
45063,2142.0,1499.0,436.0
45064,2142.0,1499.0,436.0
45065,2142.0,1499.0,436.0
45066,2142.0,1499.0,436.0
45067,2142.0,1499.0,436.0
45068,2142.0,1499.0,436.0
45069,2142.0,1499.0,436.0
45070,2142.0,1499.0,436.0
45071,22142.0,1499.0,326.0
45072,2142.0,1499.0,1135.0
45073,2142.0,1499.0,1135.0
45074,2142.0,1499.0,1135.0
45075,2142.0,1499.0,1135.0
45076,2142.0,1499.0,1135.0
45077,2142.0,1499.0,1135.0
45078,2142.0,1499.0,1135.0
45079,2142.0,1499.0,1135.0
45080,2142.0,1499.0,1135.0
45081,2142.0,1499.0,1135.0
45082,2142.0,1499.0,1135.0
45083,2142.0,1499.0,790.0
45084,2142.0,1499.0,790.0
45085,2142.0,1499.0,790.0
45086,2142.0,1499.0,1053.0
45087,2142.0,1499.0,1053.0
45088,2142.0,1499.0,1053.0
45089,2142.0,1499.0,1053.0
45090,2142.0,1499.0,1053.0
45091,2142.0,1499.0,724.0
45092,1745.0,1499.0,724.0
45093,1745.0,1499.0,724.0
45094,1745.0,1499.0,1032.0
45095,1745.0,1499.0,1032.0
45096,1745.0,1499.0,1076.0
45097,1745.0,1499.0,1076.0
45098,1745.0,1499.0,493.0
45099,1745.0,1499.0,200.0
45100,1745.0,1499.0,200.0
45101,1745.0,1499.0,940.0
45102,1745.0,1499.0,940.0
45103,1745.0,1049.0,940.0
45104,1745.0,1049.0,940.0
45105,1745.0,1049.0,940.0
45106,1745.0,1049.0,940.0
45107,1745.0,1049.0,1297.0
45108,1745.0,1049.0,1297.0
45109,1745.0,1049.0,1297.0
45110,1745.0,1049.0,663.0
45111,1745.0,1049.0,609.0
45112,1745.0,1049.0,1085.0
45113,1745.0,1049.0,1085.0
45114,1745.0,1049.0,1085.0
45115,2633.0,1049.0,1085.0
45116,2633.0,1049.0,1085.0
45117,2633.0,1049.0,1085.0
45118,2633.0,1049.0,1085.0
45119,2633.0,1049.0,1085.0
45120,2633.0,1049.0,1085.0
45121,2633.0,1049.0,1121.0
45122,2633.0,1049.0,723.0
45123,2633.0,1049.0,723.0
45124,2633.0,1049.0,577.0
45125,2633.0,1049.0,577.0
45126,2633.0,1049.0,693.0
45127,2633.0,2386.0,693.0
45128,2633.0,2386.0,467.0
46743,202.0,706.0,251.0
46744,213.0,706.0,314.0
46745,213.0,706.0,289.0
46746,654.0,706.0,162.0
46747,654.0,706.0,162.0
46748,654.0,706.0,162.0
46749,654.0,706.0,162.0
46750,654.0,706.0,162.0
46751,654.0,706.0,162.0
46752,654.0,706.0,148.0
46753,654.0,706.0,1012.0
46754,654.0,706.0,422.0
46755,589.0,706.0,267.0
46756,589.0,706.0,412.0
46757,293.0,706.0,267.0
46758,293.0,706.0,218.0
46759,293.0,698.0,370.0
46760,293.0,698.0,370.0
46761,293.0,698.0,370.0
46762,293.0,266.0,370.0
46763,293.0,266.0,370.0
46764,293.0,266.0,255.0
46765,293.0,266.0,255.0
46766,293.0,1129.0,255.0
46767,293.0,1530.0,255.0
46768,293.0,1138.0,255.0
46769,293.0,1138.0,255.0
46770,293.0,1138.0,255.0
46771,293.0,1138.0,255.0
46772,293.0,1138.0,255.0
46773,293.0,1138.0,255.0
46774,293.0,1138.0,255.0
46775,293.0,555.0,255.0
46776,293.0,555.0,255.0
46777,293.0,555.0,175.0
46778,293.0,555.0,175.0
46779,293.0,1044.0,175.0
46780,293.0,1044.0,175.0
46781,815.0,1044.0,175.0
46782,815.0,1044.0,175.0
46783,815.0,1044.0,175.0
46784,452.0,1044.0,175.0
46785,452.0,1044.0,175.0
46786,452.0,1044.0,175.0
46787,452.0,1044.0,175.0
46788,452.0,1044.0,175.0
46789,452.0,1044.0,175.0
46790,452.0,1044.0,175.0
46791,707.0,1044.0,175.0
46792,707.0,1044.0,175.0
46793,707.0,1044.0,237.0
46794,707.0,1044.0,235.0
46795,707.0,1137.0,235.0
46796,707.0,2185.0,235.0
46797,707.0,2185.0,309.0
46798,707.0,2185.0,309.0
46799,707.0,2185.0,309.0
46800,707.0,2185.0,309.0
46801,431.0,2185.0,309.0
46802,431.0,2185.0,309.0
46803,444.0,2185.0,309.0
46804,444.0,2185.0,309.0
46805,444.0,2185.0,309.0
46806,24.0,2185.0,309.0
46807,4444.0,936.0,309.0
46808,444.0,721.0,309.0
46809,444.0,721.0,309.0
46810,444.0,960.0,309.0
46811,444.0,960.0,309.0
46812,444.0,904.0,309.0
46813,444.0,736.0,309.0
46814,444.0,856.0,309.0
46815,444.0,290.0,309.0
46816,444.0,290.0,309.0
46817,444.0,290.0,309.0
46818,444.0,290.0,309.0
46819,444.0,290.0,309.0
46820,416.0,290.0,309.0
46821,416.0,290.0,309.0
46822,225.0,290.0,309.0
46823,225.0,290.0,309.0
46824,225.0,290.0,309.0
46825,225.0,290.0,309.0
46826,225.0,290.0,309.0
46827,225.0,290.0,309.0
46828,225.0,527.0,309.0
46829,225.0,527.0,309.0
46830,462.0,527.0,309.0
46831,462.0,527.0,309.0
46832,462.0,527.0,309.0
46833,462.0,527.0,263.0
46834,462.0,527.0,263.0
46835,462.0,983.0,263.0
46836,462.0,983.0,263.0
46837,462.0,983.0,213.0
46838,462.0,983.0,213.0
46839,462.0,983.0,213.0
46840,462.0,983.0,213.0
46841,323.0,983.0,416.0
46842,323.0,983.0,416.0
46843,323.0,983.0,416.0
46844,323.0,983.0,416.0
46845,323.0,369.0,416.0
46846,118.0,369.0,309.0
46847,118.0,369.0,309.0
46848,118.0,923.0,309.0
46849,118.0,923.0,309.0
46850,118.0,1037.0,309.0
46851,118.0,1037.0,309.0
46852,118.0,1037.0,256.0
46853,118.0,1037.0,256.0
46854,118.0,1037.0,256.0
46855,118.0,1037.0,256.0
46856,118.0,1037.0,256.0
46857,118.0,1037.0,256.0
46858,471.0,1037.0,334.0
46859,471.0,1351.0,334.0
46860,471.0,1351.0,334.0
46861,471.0,1351.0,334.0
46862,471.0,1351.0,334.0
46863,471.0,1271.0,334.0
46864,471.0,1271.0,334.0
46865,471.0,1271.0,334.0
46866,471.0,1271.0,277.0
46867,471.0,1271.0,277.0
46868,471.0,1271.0,277.0
46869,471.0,1271.0,277.0
46870,471.0,1271.0,277.0
46871,471.0,1271.0,277.0
46872,471.0,1271.0,277.0
46873,471.0,1271.0,277.0
46874,471.0,1271.0,277.0
46875,471.0,1271.0,277.0
46876,471.0,1271.0,277.0
46877,471.0,1271.0,277.0
46878,471.0,1271.0,277.0
46879,471.0,1271.0,277.0
46880,471.0,1271.0,277.0
48337,760.0,3580.0,358.0
48338,760.0,3760.0,358.0
48339,63700.0,252.0,374.0
48340,457.0,127.0,374.0
48341,457.0,127.0,374.0
48342,457.0,439.0,374.0
48343,457.0,230.0,374.0
48344,457.0,230.0,374.0
48345,457.0,304.0,374.0
48346,457.0,304.0,374.0
48347,457.0,304.0,374.0
48348,457.0,304.0,374.0
49867,436.0,232.0,92.0
49868,248.0,232.0,92.0
49869,876.0,232.0,92.0
49870,876.0,232.0,92.0
49871,876.0,232.0,92.0
49872,876.0,232.0,92.0
49873,876.0,156.0,92.0
49874,876.0,156.0,92.0
49875,876.0,156.0,92.0
49876,876.0,156.0,92.0
49877,760.0,515.0,92.0
49878,760.0,515.0,92.0
49879,760.0,515.0,92.0
49880,760.0,484.0,92.0
49881,760.0,454.0,92.0
49882,255.0,156.0,92.0
49883,255.0,156.0,92.0
49884,573.0,156.0,92.0
49885,573.0,156.0,92.0
49886,573.0,156.0,92.0
49887,573.0,270.0,92.0
49888,573.0,270.0,92.0
49889,573.0,270.0,92.0
49890,573.0,270.0,92.0
49891,573.0,270.0,92.0
49892,573.0,270.0,92.0
49893,573.0,270.0,92.0
49894,573.0,270.0,92.0
49895,573.0,270.0,92.0
49896,229.0,270.0,92.0
49897,229.0,270.0,92.0
49898,229.0,270.0,92.0
49899,229.0,270.0,92.0
49900,341.0,270.0,92.0
49901,341.0,270.0,92.0
49902,341.0,527.0,92.0
49903,341.0,527.0,92.0
49904,341.0,527.0,92.0
49905,341.0,527.0,92.0
49906,341.0,527.0,92.0
49907,341.0,527.0,92.0
49908,341.0,527.0,92.0
49909,341.0,527.0,92.0
49910,341.0,527.0,92.0
49911,799.0,527.0,92.0
49912,316.0,527.0,92.0
49913,739.0,527.0,92.0
49914,739.0,527.0,92.0
49915,905.0,527.0,92.0
49916,905.0,527.0,92.0
49917,686.0,527.0,92.0
49918,535.0,527.0,92.0
49919,535.0,527.0,92.0
49920,535.0,527.0,92.0
49921,535.0,527.0,92.0
49922,506.0,527.0,92.0
49923,506.0,527.0,92.0
49924,480.0,527.0,92.0
49925,480.0,474.0,92.0
49926,578.0,474.0,92.0
49927,624.0,474.0,92.0
49928,624.0,474.0,92.0
49929,624.0,474.0,92.0
49930,624.0,474.0,92.0
49931,624.0,474.0,92.0
49932,624.0,474.0,92.0
49933,624.0,474.0,92.0
49934,624.0,474.0,92.0
49935,624.0,474.0,92.0
49936,1298.0,474.0,92.0
49937,871.0,474.0,92.0
49938,871.0,1613.0,92.0
49939,871.0,1613.0,92.0
49940,871.0,407.0,92.0
49941,871.0,407.0,92.0
49942,871.0,407.0,92.0
49943,437.0,407.0,92.0
49944,437.0,407.0,92.0
49945,966.0,621.0,92.0
49946,966.0,621.0,92.0
49947,656.0,621.0,92.0
49948,656.0,621.0,92.0
49949,1155.0,621.0,92.0
49950,1155.0,621.0,92.0
49951,1083.0,621.0,92.0
49952,613.0,621.0,92.0
49953,613.0,621.0,92.0
49954,951.0,621.0,92.0
49955,1173.0,621.0,92.0
49956,1173.0,1387.0,92.0
49957,1173.0,934.0,92.0
49958,1173.0,934.0,92.0
49959,1173.0,488.0,92.0
49960,617.0,488.0,92.0
49961,617.0,488.0,92.0
49962,751.0,488.0,92.0
49963,751.0,488.0,92.0
49964,1235.0,488.0,92.0
49965,1235.0,488.0,92.0
49966,1522.0,488.0,92.0
49967,628.0,488.0,92.0
49968,1007.0,488.0,92.0
49969,1007.0,488.0,92.0
49970,969.0,488.0,92.0
49971,969.0,488.0,92.0
49972,1317.0,488.0,92.0
49973,1317.0,890.0,92.0
49974,1317.0,890.0,92.0
49975,1317.0,890.0,92.0
49976,1317.0,890.0,92.0
49977,1317.0,890.0,92.0
49978,1317.0,977.0,92.0
49979,1317.0,977.0,92.0
49980,1317.0,977.0,92.0
49981,1317.0,1075.0,92.0
49982,1317.0,1075.0,92.0
49983,1317.0,1075.0,92.0
49984,1317.0,1075.0,92.0
49985,1317.0,1075.0,92.0
49986,747.0,1075.0,92.0
49987,747.0,1075.0,92.0
49988,747.0,1075.0,92.0
49989,747.0,1075.0,92.0
49990,747.0,1075.0,92.0
49991,747.0,1075.0,92.0
49992,747.0,1075.0,92.0
49993,747.0,1075.0,92.0
49994,747.0,1075.0,92.0
49995,747.0,1075.0,92.0
49996,747.0,1075.0,92.0
49997,747.0,1075.0,92.0
49998,747.0,1788.0,92.0
49999,747.0,832.0,92.0
55964,2040.0,1672.0,1811.0
55965,2040.0,415.0,1811.0
55966,2040.0,415.0,1811.0
55967,2040.0,415.0,1811.0
55968,2040.0,415.0,1811.0
55969,2040.0,415.0,1811.0
55970,2040.0,878.0,1811.0
55971,2040.0,878.0,1811.0
55972,2040.0,1442.0,1811.0
55973,2040.0,1442.0,1811.0
55974,2897.0,1443.0,1811.0
55975,2897.0,629.0,1811.0
55976,768.0,629.0,3425.0
55977,768.0,629.0,2071.0
55978,768.0,629.0,2868.0
55979,768.0,629.0,2868.0
55980,768.0,629.0,2868.0
55981,768.0,629.0,2868.0
55982,1731.0,629.0,2868.0
55983,1731.0,629.0,2868.0
55984,1731.0,629.0,2868.0
55985,1731.0,629.0,2868.0
55986,1731.0,629.0,2868.0
55987,1731.0,629.0,2868.0
55988,1617.0,629.0,2868.0
55989,1617.0,1930.0,2868.0
55990,1617.0,1930.0,2868.0
55991,1617.0,825.0,4926.0
55992,1617.0,825.0,4926.0
55993,1617.0,825.0,4926.0
55994,617.0,825.0,4926.0
55995,1927.0,825.0,4926.0
55996,1927.0,1472.0,4926.0
55997,1927.0,1472.0,4926.0
55998,1927.0,1472.0,2224.0
55999,1927.0,1472.0,2224.0
56000,1927.0,1472.0,2224.0
56001,1927.0,1472.0,2224.0
56002,1927.0,1472.0,2224.0
56003,1927.0,1472.0,2224.0
56004,1927.0,1472.0,2735.0
56005,1927.0,1472.0,2735.0
56006,1927.0,1472.0,2735.0
56007,1927.0,1472.0,2735.0
56008,1927.0,1472.0,2735.0
56009,1927.0,1472.0,2735.0
56010,1927.0,1472.0,2735.0
56011,1927.0,1472.0,2735.0
56012,1927.0,1472.0,2735.0
56013,1927.0,1472.0,2735.0
56014,1927.0,1472.0,2735.0
56015,1927.0,513.0,2735.0
56016,1927.0,513.0,2735.0
56017,1927.0,513.0,2735.0
56018,1927.0,1055.0,2588.0
56019,1927.0,1055.0,2588.0
56020,1927.0,1055.0,2588.0
56021,1927.0,1134.0,2588.0
56022,1927.0,1134.0,2669.0
56023,1927.0,1134.0,2669.0
56024,1927.0,1134.0,3844.0
56025,1927.0,1134.0,3844.0
56026,777.0,1134.0,3844.0
56027,777.0,1134.0,3844.0
56028,777.0,1134.0,3844.0
56029,777.0,1134.0,3844.0
56030,777.0,1134.0,3844.0
56031,777.0,1134.0,2937.0
56032,777.0,1134.0,2937.0
56033,777.0,1134.0,3520.0
56034,777.0,1134.0,3520.0
56035,777.0,1134.0,3520.0
56036,777.0,1134.0,3520.0
56037,1114.0,1134.0,3520.0
56038,1080.0,1134.0,3520.0
56039,1080.0,1134.0,3520.0
56040,1080.0,1134.0,1386.0
56041,1080.0,1134.0,1386.0
56042,1080.0,1134.0,1386.0
56043,1080.0,1134.0,1258.0
56044,1080.0,1134.0,1258.0
56045,1080.0,1134.0,1069.0
56046,1080.0,1134.0,2773.0
56047,1080.0,1134.0,3383.0
56048,1080.0,1134.0,3383.0
56049,1080.0,1134.0,2561.0
56050,1080.0,1134.0,2561.0
56051,1080.0,1134.0,2561.0
56052,1080.0,1134.0,4982.0
56053,1080.0,1134.0,2020.0
56054,1080.0,1134.0,2627.0
56055,1080.0,1134.0,5168.0
56056,1080.0,1134.0,3076.0
56057,1080.0,1134.0,3076.0
56058,1080.0,1134.0,3076.0
56059,1080.0,1134.0,2683.0
56060,1080.0,1134.0,2683.0
56061,1080.0,1134.0,2683.0
56062,108080.0,1134.0,2683.0
56063,1080.0,1134.0,2683.0
56064,1080.0,1134.0,2683.0
56065,1080.0,1134.0,2971.0
56066,1080.0,1134.0,2971.0
56067,1080.0,1134.0,1278.0
56068,1342.0,1685.0,1278.0
56069,1342.0,1685.0,1278.0
56070,1342.0,1685.0,1278.0
56071,1342.0,1685.0,1278.0
56072,1342.0,1685.0,1278.0
56073,1342.0,1685.0,1278.0
56074,1342.0,1685.0,2562.0
56075,1342.0,1685.0,2562.0
56076,1342.0,1685.0,2562.0
56077,1342.0,1685.0,2562.0
56078,1342.0,1685.0,2562.0
56079,1342.0,1685.0,2562.0
56080,975.0,1685.0,3080.0
56081,975.0,1685.0,3080.0
56082,975.0,1685.0,3080.0
56083,975.0,1685.0,3080.0
56084,975.0,1685.0,3080.0
56085,975.0,1685.0,2370.0
56086,975.0,1685.0,2370.0
56087,975.0,1685.0,2325.0
56088,975.0,1685.0,2325.0
56089,975.0,1685.0,2325.0
56090,787.0,1685.0,2325.0
56091,1713.0,1685.0,2325.0
57794,1067.0,1564.0,4100.0
57795,1067.0,1564.0,4100.0
57796,1067.0,1564.0,4100.0
57797,1067.0,1564.0,4100.0
57798,1067.0,1564.0,4100.0
57799,1067.0,1564.0,4100.0
57800,1067.0,1564.0,3003.0
57801,1067.0,1564.0,3003.0
57802,1067.0,1564.0,4186.0
57803,1067.0,1564.0,4186.0
57804,1067.0,1564.0,2635.0
57805,1067.0,1564.0,2635.0
57806,1067.0,1564.0,2635.0
57807,1067.0,1564.0,2635.0
57808,1067.0,1564.0,2635.0
57809,7.0,1564.0,2635.0
57810,1067.0,1564.0,2635.0
57811,1067.0,928.0,2635.0
57812,1067.0,1272.0,2635.0
57813,1067.0,1272.0,2635.0
57814,1067.0,1272.0,2635.0
57815,1150.0,1272.0,2635.0
57816,1150.0,1272.0,2635.0
57817,1150.0,425.0,2635.0
57818,1150.0,758.0,2635.0
57819,1150.0,758.0,2635.0
57820,1150.0,899.0,2635.0
57821,1150.0,899.0,2635.0
57822,1150.0,899.0,2635.0
57823,1150.0,899.0,2635.0
57824,1150.0,899.0,2635.0
57825,1150.0,899.0,2635.0
57826,1150.0,899.0,2635.0
57827,1150.0,899.0,2635.0
57828,1150.0,899.0,2635.0
57829,1150.0,899.0,2635.0
57830,1150.0,1178.0,2635.0
57831,1150.0,555.0,2635.0
57832,1150.0,555.0,1183.0
57833,1150.0,555.0,1183.0
57834,1150.0,555.0,3078.0
57835,1248.0,555.0,3078.0
57836,1248.0,555.0,3078.0
57837,1248.0,555.0,3078.0
57838,1248.0,555.0,3078.0
57839,1248.0,555.0,3078.0
57840,1248.0,599.0,3078.0
57841,1099.0,831.0,3078.0
57842,1099.0,831.0,3078.0
57843,1099.0,831.0,3078.0
57844,1099.0,831.0,3078.0
57845,1099.0,831.0,3078.0
57846,1099.0,831.0,3078.0
57847,1099.0,831.0,3078.0
57848,1099.0,831.0,3078.0
57849,1099.0,831.0,3078.0
57850,1099.0,831.0,2494.0
57851,1099.0,798.0,2494.0
57852,1099.0,798.0,2494.0
57853,1099.0,798.0,2494.0
57854,1099.0,798.0,2494.0
57855,1099.0,798.0,2494.0
57856,1099.0,798.0,2494.0
57857,1099.0,941.0,2494.0
57858,1099.0,941.0,2494.0
57859,1417.0,941.0,2494.0
57860,2163.0,941.0,2494.0
57861,2163.0,941.0,2494.0
57862,2163.0,850.0,2494.0
57863,2163.0,850.0,2494.0
57864,2163.0,850.0,2494.0
57865,2163.0,850.0,2494.0
57866,2163.0,701.0,2494.0
57867,2163.0,701.0,2494.0
57868,2163.0,701.0,2494.0
57869,2163.0,701.0,2494.0
57870,2163.0,701.0,2255.0
57871,2163.0,701.0,2648.0
57872,2163.0,701.0,2648.0
57873,2163.0,701.0,2648.0
57874,2163.0,701.0,1654.0
57875,2163.0,701.0,1654.0
57876,2163.0,701.0,2176.0
57877,2163.0,701.0,2176.0
57878,2163.0,701.0,1978.0
57879,2163.0,701.0,1978.0
57880,2163.0,701.0,2631.0
57881,2163.0,701.0,1868.0
57882,2163.0,701.0,1868.0
57883,2163.0,701.0,1868.0
57884,2163.0,701.0,1868.0
57885,2163.0,701.0,2724.0
57886,2163.0,701.0,2724.0
57887,2163.0,701.0,4539.0
57888,2163.0,1567.0,4539.0
57889,2163.0,1567.0,3419.0
57890,2163.0,1567.0,3329.0
57891,2163.0,1567.0,3329.0
57892,2163.0,1567.0,3329.0
57893,63.0,1567.0,4381.0
57894,2163.0,1567.0,4381.0
57895,2163.0,1567.0,2610.0
57896,1826.0,1567.0,2610.0
57897,1826.0,1567.0,2610.0
57898,1826.0,1567.0,2610.0
57899,1826.0,1567.0,2610.0
57900,1826.0,1567.0,2610.0
57901,1826.0,1207.0,2610.0
57902,1826.0,1207.0,2610.0
57903,1826.0,1207.0,2610.0
57904,1826.0,1207.0,2610.0
57905,1826.0,1121.0,2610.0
57906,1826.0,1121.0,2610.0
57907,1826.0,1971.0,2610.0
57908,1826.0,864.0,2610.0
57909,1826.0,864.0,2610.0
57910,1751.0,864.0,2610.0
57911,1751.0,864.0,2610.0
57912,1751.0,864.0,2610.0
57913,1751.0,864.0,2610.0
57914,1751.0,864.0,2610.0
57915,2489.0,864.0,2610.0
57916,2489.0,864.0,2610.0
57917,2489.0,864.0,2610.0
57918,2489.0,864.0,2610.0
57919,4613.0,864.0,2610.0
57920,4613.0,864.0,2610.0
57921,4613.0,864.0,2610.0
57922,4613.0,864.0,3652.0
57923,4613.0,864.0,3652.0
57924,4613.0,926.0,3652.0
57925,4613.0,926.0,3652.0
57926,4613.0,777.0,3652.0
57927,4613.0,777.0,3652.0
57928,4613.0,777.0,3652.0
57929,4613.0,777.0,3652.0
57930,4613.0,1257.0,3652.0
59484,2734.0,2475.0,3973.0
59485,2734.0,2475.0,3973.0
59486,2734.0,2475.0,3973.0
59487,2734.0,2475.0,3973.0
59488,2734.0,2475.0,3973.0
59489,3691.0,796.0,3973.0
59490,3691.0,796.0,3973.0
59491,3691.0,796.0,3973.0
59492,3691.0,796.0,3973.0
59493,1538.0,796.0,3973.0
59494,6.0,796.0,3973.0
59495,108181.0,796.0,3973.0
59496,10184.0,796.0,3973.0
59497,11184.0,796.0,3973.0
59498,1184.0,796.0,3973.0
59499,1184.0,796.0,3973.0
59500,1184.0,796.0,3973.0
59501,1184.0,796.0,3973.0
59502,1184.0,796.0,3973.0
59503,1184.0,796.0,3973.0
59504,1184.0,1003.0,3973.0
59505,1184.0,2919.0,3973.0
59506,1184.0,2919.0,3973.0
59507,1184.0,2919.0,3973.0
59508,11842.0,2919.0,2885.0
59509,99992.0,2919.0,2885.0
59510,992.0,2919.0,2885.0
59511,992.0,2919.0,1414.0
59512,992.0,2919.0,1414.0
59513,992.0,1965.0,1414.0
59514,992.0,1965.0,1414.0
59515,992.0,1965.0,1414.0
59516,992.0,1219.0,4938.0
59517,992.0,1219.0,4938.0
59518,992.0,599.0,4938.0
59519,992.0,599.0,4938.0
59520,992.0,599.0,4938.0
59521,992.0,599.0,4938.0
59522,992.0,599.0,4938.0
59523,992.0,599.0,4938.0
59524,4534.0,599.0,4938.0
59525,534.0,599.0,4938.0
59526,4534.0,599.0,4938.0
59527,4534.0,599.0,4938.0
59528,4534.0,599.0,4938.0
59529,4534.0,599.0,4938.0
59530,4534.0,599.0,4938.0
59531,4534.0,599.0,4938.0
59532,4534.0,599.0,3244.0
59533,4534.0,606.0,3569.0
59534,4534.0,606.0,3569.0
59535,4534.0,606.0,3569.0
59536,4534.0,606.0,3569.0
59537,4534.0,606.0,3569.0
59538,2048.0,483.0,3569.0
59539,2048.0,1713.0,3569.0
59540,2048.0,2324.0,3569.0
59541,2048.0,3012.0,3569.0
59542,2048.0,3012.0,3569.0
59543,2048.0,1345.0,3569.0
59544,2048.0,1345.0,2243.0
59545,2048.0,1345.0,2243.0
59546,2048.0,1345.0,2243.0
59547,2048.0,1345.0,2243.0
59548,2048.0,1345.0,4341.0
59549,2048.0,1345.0,4341.0
59550,2048.0,1345.0,4341.0
59551,2048.0,1345.0,4341.0
59552,2388.0,1345.0,4341.0
59553,2388.0,1345.0,2740.0
59554,2388.0,1345.0,2740.0
59555,2713.0,1345.0,2658.0
59556,2713.0,1345.0,2658.0
59557,1313.0,1345.0,2658.0
59558,1313.0,1345.0,2658.0
59559,13185.0,1345.0,1074.0
59560,2782.0,1345.0,1074.0
59561,2782.0,1345.0,1074.0
59562,865.0,1345.0,1074.0
59563,865.0,1345.0,1074.0
59564,865.0,1345.0,1074.0
59565,865.0,1606.0,1074.0
59566,865.0,1606.0,1074.0
59567,865.0,1606.0,1074.0
59568,865.0,1606.0,2270.0
59569,865.0,1606.0,2270.0
59570,865.0,1606.0,2270.0
59571,865.0,1606.0,2270.0
59572,2669.0,1606.0,2270.0
59573,2669.0,1606.0,2270.0
59574,2669.0,1606.0,2270.0
59575,2669.0,1606.0,2270.0
59576,94300.0,1606.0,2542.0
59577,2669.0,1606.0,2542.0
59578,2669.0,1606.0,2542.0
59579,2669.0,1606.0,2579.0
59580,2669.0,1606.0,2579.0
59581,1336.0,1606.0,2579.0
59582,1336.0,1606.0,2579.0
59583,1336.0,1606.0,2579.0
59584,1336.0,747.0,2579.0
59585,1869.0,747.0,2579.0
59586,1869.0,747.0,2579.0
59587,1869.0,747.0,2579.0
59588,3116.0,747.0,2579.0
59589,3116.0,747.0,2579.0
59590,1835.0,747.0,2579.0
59591,1155.0,747.0,2579.0
59592,1155.0,1777.0,2579.0
59593,1155.0,1526.0,1993.0
59594,1155.0,1723.0,1993.0
59595,1155.0,1723.0,1993.0
59596,1155.0,1723.0,1993.0
59597,1155.0,1723.0,1993.0
59598,1155.0,1723.0,1993.0
59599,1155.0,1723.0,1993.0
59600,1155.0,1723.0,1993.0
59601,1155.0,1723.0,1993.0
59602,1155.0,1449.0,1993.0
59603,1155.0,1449.0,1993.0
59604,1155.0,1449.0,1993.0
59605,1155.0,1449.0,1993.0
59606,1155.0,1734.0,1993.0
59607,1155.0,1734.0,1993.0
59608,1957.0,1222.0,1993.0
59609,1957.0,1222.0,1993.0
59610,1957.0,1222.0,1993.0
59611,2711.0,780.0,1993.0
59612,2711.0,780.0,1993.0
59613,2711.0,1736.0,1993.0
59614,2711.0,1736.0,1993.0
59615,3220.0,1736.0,1993.0
59616,3220.0,1736.0,1993.0
59617,3220.0,1736.0,1649.0
59618,3220.0,2488.0,1649.0
59619,300.0,2488.0,1649.0
59620,3220.0,2488.0,1649.0
61144,2077.0,1181.0,1993.0
61145,2077.0,1497.0,1993.0
61146,2077.0,1497.0,1993.0
61147,2077.0,1142.0,1993.0
61148,2077.0,1142.0,1993.0
61149,2077.0,1142.0,1993.0
61150,2077.0,1142.0,1993.0
61151,2077.0,1142.0,1993.0
61152,2077.0,1328.0,1993.0
61153,2077.0,1328.0,1993.0
61154,2077.0,1328.0,1993.0
61155,2077.0,1328.0,1993.0
61156,77.0,1328.0,1993.0
61157,2077.0,1328.0,1993.0
61158,2077.0,1328.0,1993.0
61159,2077.0,1066.0,1993.0
61160,2077.0,1066.0,1993.0
61161,2077.0,1066.0,1993.0
61162,2077.0,1089.0,1993.0
61163,2077.0,1089.0,1993.0
61164,2077.0,1089.0,1993.0
61165,2077.0,1089.0,1993.0
61166,2077.0,1089.0,1993.0
61167,2077.0,1089.0,1993.0
61168,2077.0,1089.0,1993.0
61169,2077.0,1089.0,1993.0
61170,2077.0,1089.0,1993.0
61171,2077.0,651.0,1993.0
61172,2077.0,651.0,1993.0
61173,2077.0,651.0,1993.0
61174,2077.0,651.0,1993.0
61175,2077.0,651.0,1993.0
61176,2077.0,651.0,1993.0
61177,2077.0,651.0,1993.0
61178,2077.0,651.0,1993.0
61179,2077.0,651.0,1993.0
61180,2077.0,651.0,1993.0
61181,2077.0,651.0,1993.0
61182,3443.0,651.0,1993.0
61183,30.0,651.0,1993.0
61184,3443.0,651.0,1993.0
61185,3454.0,651.0,1993.0
61186,1864.0,651.0,1993.0
61187,1923.0,651.0,1993.0
61188,1923.0,651.0,1993.0
61189,1923.0,651.0,1993.0
61190,1923.0,651.0,2385.0
61191,1923.0,651.0,2385.0
61192,1923.0,651.0,2385.0
61193,1923.0,651.0,2385.0
61194,1923.0,651.0,2385.0
61195,1923.0,651.0,2385.0
61196,1923.0,651.0,2385.0
61197,1923.0,651.0,2385.0
61198,1923.0,651.0,2385.0
61199,1923.0,651.0,2385.0
61200,1923.0,651.0,2385.0
61201,1923.0,651.0,2385.0
61202,1923.0,651.0,4978.0
61203,1923.0,651.0,4978.0
61204,1923.0,651.0,4978.0
61205,1923.0,651.0,4978.0
61206,1923.0,651.0,4978.0
61207,1923.0,651.0,4978.0
61208,1923.0,651.0,4978.0
61209,1923.0,651.0,4978.0
61210,1923.0,651.0,4978.0
61211,1923.0,651.0,4978.0
61212,1923.0,651.0,4978.0
61213,1923.0,651.0,4978.0
61214,1923.0,651.0,4978.0
61215,1923.0,651.0,4978.0
61216,2340.0,651.0,4978.0
61217,2340.0,651.0,4978.0
61218,2340.0,651.0,4978.0
61219,2340.0,651.0,4978.0
61220,4660.0,651.0,4978.0
61221,4660.0,651.0,4978.0
61222,4660.0,651.0,4978.0
61223,4660.0,651.0,4978.0
61224,4660.0,651.0,4978.0
61225,4660.0,651.0,4978.0
61226,1619.0,651.0,4978.0
61227,219.0,651.0,4978.0
61228,16619.0,651.0,4978.0
61229,1619.0,651.0,4978.0
61230,3092.0,651.0,4978.0
61231,3092.0,651.0,4978.0
61232,3092.0,651.0,4978.0
61233,3092.0,651.0,4978.0
61234,2576.0,651.0,4978.0
61235,2576.0,651.0,4978.0
61236,2576.0,651.0,4978.0
61237,2599.0,651.0,4978.0
61238,2599.0,651.0,4978.0
61239,2599.0,651.0,4978.0
61240,2599.0,651.0,1353.0
61241,2599.0,651.0,1353.0
61242,2348.0,651.0,1353.0
61243,2348.0,651.0,1353.0
61244,2348.0,651.0,1353.0
61245,2348.0,2408.0,1353.0
61246,2348.0,2408.0,1353.0
61247,2348.0,2408.0,1353.0
61248,2348.0,2408.0,1353.0
61249,2348.0,1634.0,1353.0
61250,2348.0,1634.0,1353.0
61251,2348.0,1634.0,1353.0
61252,2348.0,1634.0,1353.0
61253,20.0,1634.0,1353.0
61254,2348.0,908.0,1353.0
61255,2348.0,908.0,1353.0
61256,2348.0,908.0,1353.0
61257,2348.0,908.0,1353.0
61258,2348.0,908.0,1353.0
61259,2348.0,908.0,1353.0
61260,2348.0,1212.0,1353.0
61261,2348.0,359.0,1353.0
61262,1619.0,359.0,1353.0
61263,1619.0,359.0,1353.0
61264,1619.0,359.0,1353.0
61265,1619.0,359.0,1353.0
61266,1566.0,359.0,2938.0
61267,1566.0,359.0,2938.0
61268,1566.0,359.0,2938.0
61269,1566.0,1782.0,2938.0
61270,1566.0,1782.0,4285.0
61271,1566.0,1782.0,4285.0
61272,1566.0,1782.0,4285.0
61273,4499.0,1782.0,4285.0
61274,4499.0,1782.0,4285.0
61275,4499.0,1782.0,4285.0
61276,4499.0,1782.0,4285.0
61277,4499.0,1782.0,4285.0
61278,4499.0,1782.0,4285.0
61279,4499.0,1782.0,4285.0
61280,4499.0,1782.0,4285.0
61281,4499.0,1782.0,4285.0
62929,369.0,483.0,649.0
62930,369.0,483.0,649.0
62931,369.0,483.0,649.0
62932,369.0,483.0,649.0
62933,369.0,869.0,649.0
62934,369.0,744.0,649.0
62935,369.0,496.0,649.0
62936,369.0,496.0,649.0
62937,128.0,496.0,649.0
62938,128.0,496.0,1358.0
62939,128.0,582.0,1358.0
62940,128.0,582.0,1358.0
62941,286.0,582.0,1358.0
62942,286.0,582.0,1358.0
62943,286.0,582.0,1358.0
62944,286.0,1154.0,1358.0
62945,286.0,1154.0,1358.0
62946,286.0,1154.0,1358.0
62947,206.0,1154.0,1358.0
62948,206.0,1154.0,1358.0
62949,206.0,1154.0,1358.0
62950,176.0,1154.0,1358.0
62951,176.0,1154.0,1358.0
62952,176.0,1154.0,1358.0
62953,91.0,1154.0,514.0
62954,135.0,1154.0,703.0
62955,134.0,1154.0,572.0
62956,187.0,1154.0,572.0
62957,187.0,1154.0,572.0
62958,187.0,1154.0,572.0
62959,187.0,1154.0,572.0
62960,187.0,798.0,572.0
62961,187.0,798.0,572.0
62962,191.0,798.0,572.0
62963,191.0,798.0,572.0
62964,156.0,798.0,572.0
62965,156.0,642.0,572.0
62966,156.0,642.0,572.0
62967,156.0,642.0,433.0
62968,156.0,642.0,1421.0
62969,156.0,1669.0,1421.0
62970,156.0,1669.0,1421.0
62971,156.0,1669.0,1421.0
62972,156.0,430.0,1421.0
62973,156.0,845.0,1421.0
62974,156.0,845.0,1421.0
62975,156.0,845.0,1421.0
62976,156.0,845.0,1421.0
62977,156.0,845.0,555.0
62978,156.0,845.0,909.0
62979,156.0,845.0,678.0
62980,156.0,845.0,678.0
62981,162.0,845.0,678.0
62982,162.0,845.0,1602.0
62983,162.0,965.0,1602.0
62984,162.0,965.0,1602.0
62985,293.0,965.0,1602.0
62986,293.0,965.0,1602.0
62987,293.0,965.0,1602.0
62988,293.0,965.0,1602.0
62989,293.0,965.0,1602.0
62990,293.0,965.0,1602.0
62991,293.0,965.0,1602.0
62992,293.0,965.0,1602.0
62993,293.0,965.0,1602.0
62994,293.0,965.0,1602.0
62995,293.0,965.0,1602.0
62996,293.0,965.0,1602.0
62997,293.0,965.0,1602.0
62998,293.0,476.0,1327.0
62999,293.0,476.0,1327.0
63000,293.0,476.0,1327.0
63001,293.0,476.0,1327.0
63002,293.0,476.0,1327.0
63003,293.0,476.0,1327.0
63004,214.0,476.0,645.0
63005,214.0,476.0,645.0
63006,214.0,476.0,1335.0
63007,214.0,476.0,925.0
63008,214.0,476.0,925.0
63009,214.0,476.0,925.0
63010,214.0,476.0,560.0
63011,214.0,476.0,700.0
63012,354.0,476.0,700.0
63013,354.0,476.0,700.0
63014,354.0,476.0,700.0
63015,123.0,476.0,700.0
63016,123.0,1167.0,941.0
63017,123.0,1167.0,941.0
63018,123.0,972.0,941.0
63019,123.0,972.0,941.0
63020,123.0,669.0,941.0
63021,150.0,669.0,941.0
63022,150.0,669.0,941.0
63023,150.0,669.0,941.0
63024,150.0,669.0,941.0
63025,150.0,669.0,941.0
63026,150.0,669.0,941.0
63027,150.0,669.0,941.0
63028,150.0,669.0,941.0
63029,150.0,526.0,1088.0
63030,150.0,526.0,1088.0
63031,150.0,729.0,676.0
63032,150.0,729.0,676.0
63033,150.0,729.0,676.0
63034,150.0,729.0,319.0
63035,264.0,729.0,319.0
63036,264.0,729.0,319.0
63037,264.0,729.0,319.0
63038,264.0,729.0,319.0
63039,264.0,849.0,319.0
63040,102.0,849.0,319.0
63041,102.0,424.0,319.0
63042,102.0,424.0,319.0
63043,102.0,424.0,319.0
63044,102.0,424.0,319.0
63045,102.0,424.0,1585.0
63046,102.0,424.0,1585.0
63047,102.0,424.0,1585.0
63048,102.0,424.0,1585.0
63049,102.0,424.0,1585.0
63050,102.0,771.0,1585.0
63051,102.0,771.0,1585.0
63052,102.0,771.0,1585.0
63053,102.0,771.0,1585.0
63054,102.0,569.0,1585.0
63055,102.0,569.0,1585.0
63056,102.0,543.0,1585.0
63057,102.0,543.0,1585.0
63058,102.0,1484.0,1585.0
63059,102.0,1484.0,1585.0
63060,102.0,774.0,1585.0
63061,102.0,774.0,1674.0
63062,102.0,774.0,1249.0
63063,102.0,774.0,1249.0
63064,102.0,774.0,1249.0
63065,102.0,774.0,1249.0
63066,102.0,774.0,1249.0
63067,102.0,774.0,1249.0
63068,102.0,774.0,1249.0
63069,102.0,774.0,1244.0
63070,102.0,774.0,834.0
63071,102.0,774.0,834.0
63072,389.0,774.0,834.0
63073,63.0,774.0,834.0
63074,63.0,774.0,834.0
63075,63.0,774.0,834.0
63076,63.0,774.0,1066.0
63077,63.0,677.0,1066.0
63078,63.0,677.0,1066.0
63079,63.0,677.0,1066.0
63080,63.0,677.0,1066.0
63081,277.0,677.0,1390.0
64734,206.0,1050.0,916.0
64735,206.0,1050.0,916.0
64736,206.0,1050.0,916.0
64737,206.0,1050.0,770.0
64738,206.0,1050.0,770.0
64739,206.0,1050.0,770.0
64740,206.0,1050.0,770.0
64741,206.0,1050.0,770.0
64742,206.0,1050.0,770.0
64743,206.0,1050.0,770.0
64744,206.0,1050.0,770.0
64745,2006.0,1050.0,770.0
64746,206.0,1050.0,770.0
64747,206.0,1050.0,770.0
64748,206.0,1290.0,770.0
64749,206.0,1290.0,770.0
64750,206.0,1290.0,770.0
64751,206.0,1290.0,770.0
64752,206.0,1290.0,770.0
64753,206.0,1290.0,770.0
64754,206.0,1290.0,770.0
64755,206.0,1290.0,770.0
64756,206.0,1290.0,770.0
64757,206.0,1290.0,770.0
64758,83.0,1290.0,770.0
64759,83.0,1290.0,770.0
64760,83.0,710.0,770.0
64761,83.0,710.0,770.0
64762,83.0,710.0,770.0
64763,421.0,710.0,770.0
64764,421.0,710.0,770.0
64765,54.0,710.0,770.0
64766,54.0,710.0,770.0
64767,42.0,710.0,770.0
64768,54.0,710.0,770.0
64769,240.0,710.0,770.0
64770,240.0,710.0,770.0
64771,240.0,710.0,770.0
64772,240.0,710.0,770.0
64773,240.0,710.0,770.0
64774,240.0,710.0,770.0
64775,240.0,710.0,770.0
64776,240.0,710.0,770.0
64777,240.0,710.0,770.0
64778,289.0,710.0,770.0
64779,250.0,710.0,770.0
64780,250.0,710.0,770.0
64781,250.0,710.0,770.0
64782,250.0,710.0,770.0
64783,250.0,710.0,770.0
64784,250.0,710.0,770.0
64785,250.0,710.0,770.0
64786,250.0,710.0,770.0
64787,250.0,710.0,770.0
64788,250.0,710.0,770.0
64789,250.0,710.0,770.0
64790,250.0,710.0,770.0
64791,250.0,710.0,770.0
64792,250.0,710.0,770.0
64793,250.0,710.0,770.0
64794,164.0,710.0,770.0
64795,164.0,710.0,770.0
64796,164.0,710.0,770.0
64797,164.0,710.0,770.0
64798,164.0,710.0,770.0
64799,201.0,710.0,770.0
64800,1.0,710.0,770.0
64801,201.0,710.0,770.0
64802,201.0,710.0,770.0
64803,201.0,710.0,770.0
64804,201.0,710.0,770.0
64805,201.0,710.0,770.0
64806,201.0,710.0,770.0
64807,201.0,710.0,770.0
64808,201.0,710.0,770.0
64809,201.0,710.0,770.0
64810,201.0,710.0,770.0
64811,201.0,710.0,770.0
64812,201.0,710.0,770.0
64813,201.0,710.0,770.0
64814,201.0,710.0,770.0
64815,409.0,710.0,770.0
64816,409.0,710.0,770.0
64817,409.0,710.0,770.0
64818,409.0,710.0,770.0
64819,409.0,710.0,770.0
64820,409.0,710.0,770.0
64821,409.0,710.0,770.0
64822,409.0,1331.0,770.0
64823,409.0,1331.0,770.0
64824,409.0,1331.0,770.0
64825,409.0,1331.0,770.0
64826,169.0,1331.0,770.0
64827,169.0,1331.0,770.0
64828,169.0,1331.0,770.0
64829,169.0,912.0,770.0
64830,169.0,912.0,770.0
64831,20.0,912.0,770.0
64832,342.0,912.0,770.0
64833,342.0,912.0,770.0
64834,342.0,912.0,770.0
64835,342.0,912.0,770.0
64836,342.0,912.0,770.0
64837,342.0,912.0,754.0
64838,342.0,912.0,754.0
64839,342.0,912.0,754.0
64840,342.0,912.0,754.0
64841,321.0,912.0,754.0
64842,323.0,912.0,754.0
64843,323.0,912.0,754.0
64844,323.0,912.0,754.0
64845,323.0,912.0,754.0
64846,323.0,912.0,754.0
64847,323.0,1146.0,754.0
64848,323.0,1146.0,754.0
64849,323.0,1191.0,754.0
64850,240.0,1191.0,754.0
64851,240.0,1191.0,754.0
64852,240.0,1191.0,754.0
64853,240.0,1191.0,754.0
64854,240.0,1191.0,754.0
64855,265.0,1191.0,754.0
64856,265.0,1191.0,754.0
64857,265.0,1191.0,754.0
64858,265.0,1191.0,754.0
64859,265.0,1191.0,754.0
64860,280.0,1191.0,754.0
64861,280.0,1191.0,754.0
64862,228.0,1191.0,754.0
64863,382.0,1191.0,754.0
64864,382.0,1191.0,754.0
64865,382.0,1191.0,754.0
64866,382.0,1135.0,754.0
66561,184.0,509.0,729.0
66562,184.0,509.0,791.0
66563,184.0,509.0,791.0
66564,184.0,509.0,726.0
66565,184.0,509.0,726.0
66566,137.0,509.0,726.0
66567,137.0,509.0,726.0
66568,137.0,509.0,726.0
66569,137.0,509.0,726.0
66570,137.0,509.0,726.0
66571,177.0,509.0,726.0
66572,177.0,509.0,726.0
66573,177.0,509.0,726.0
66574,177.0,509.0,712.0
66575,177.0,509.0,712.0
66576,245.0,509.0,712.0
66577,255.0,509.0,712.0
66578,255.0,843.0,712.0
66579,87.0,843.0,712.0
66580,87.0,843.0,712.0
66581,87.0,843.0,686.0
66582,87.0,843.0,724.0
66583,87.0,1256.0,724.0
66584,87.0,1256.0,724.0
66585,87.0,1256.0,724.0
66586,277.0,1256.0,724.0
66587,277.0,1256.0,937.0
66588,277.0,1256.0,937.0
66589,558.0,1256.0,937.0
66590,558.0,1256.0,937.0
66591,558.0,1256.0,937.0
66592,350.0,1256.0,937.0
66593,199.0,1256.0,766.0
66594,182.0,1256.0,766.0
66595,182.0,1256.0,766.0
66596,182.0,1256.0,143.0
66597,182.0,1256.0,143.0
66598,320.0,1256.0,143.0
66599,320.0,1256.0,143.0
66600,320.0,959.0,143.0
66601,320.0,959.0,143.0
66602,320.0,959.0,143.0
66603,320.0,959.0,143.0
66604,320.0,959.0,371.0
66605,320.0,959.0,371.0
66606,10.0,959.0,371.0
66607,320.0,959.0,1257.0
66608,320.0,959.0,1257.0
66609,320.0,900.0,724.0
66610,320.0,900.0,724.0
66611,320.0,900.0,392.0
66612,320.0,900.0,392.0
66613,320.0,900.0,392.0
66614,257.0,819.0,392.0
66615,257.0,819.0,392.0
66616,228.0,819.0,392.0
66617,228.0,819.0,392.0
66618,228.0,819.0,392.0
66619,228.0,819.0,392.0
66620,128.0,819.0,392.0
66621,202.0,819.0,703.0
66622,202.0,819.0,703.0
66623,202.0,819.0,703.0
66624,202.0,819.0,834.0
66625,202.0,819.0,768.0
66626,202.0,819.0,768.0
66627,247.0,819.0,768.0
66628,247.0,819.0,768.0
66629,247.0,819.0,768.0
66630,247.0,819.0,1052.0
66631,247.0,819.0,1052.0
66632,247.0,819.0,899.0
66633,247.0,819.0,899.0
66634,247.0,819.0,899.0
66635,247.0,819.0,899.0
66636,247.0,819.0,899.0
66637,88.0,819.0,899.0
66638,75.0,819.0,899.0
66639,223.0,819.0,899.0
66640,223.0,819.0,899.0
66641,223.0,819.0,790.0
66642,223.0,819.0,752.0
66643,223.0,819.0,556.0
66644,223.0,819.0,454.0
66645,223.0,819.0,1279.0
66646,223.0,819.0,1279.0
66647,223.0,819.0,1279.0
66648,223.0,819.0,625.0
66649,287.0,819.0,625.0
66650,287.0,819.0,625.0
66651,154.0,819.0,1118.0
66652,202.0,819.0,1015.0
66653,202.0,819.0,1015.0
66654,139.0,819.0,1015.0
66655,139.0,819.0,1015.0
66656,139.0,819.0,1015.0
66657,139.0,819.0,725.0
66658,139.0,819.0,725.0
66659,139.0,819.0,623.0
66660,139.0,819.0,623.0
66661,139.0,819.0,623.0
66662,39.0,819.0,390.0
66663,139.0,1442.0,532.0
66664,139.0,1442.0,200.0
66665,139.0,1442.0,1159.0
66666,139.0,1442.0,1159.0
66667,139.0,1695.0,1159.0
66668,258.0,1695.0,1159.0
66669,258.0,1695.0,1159.0
66670,258.0,1695.0,1159.0
66671,258.0,1695.0,615.0
66672,154.0,1695.0,615.0
66673,85.0,1695.0,615.0
66674,85.0,1695.0,615.0
66675,85.0,1695.0,615.0
66676,115.0,1695.0,615.0
66677,295.0,1695.0,817.0
66678,88.0,1695.0,817.0
66679,88.0,1695.0,582.0
66680,88.0,1695.0,582.0
66681,88.0,1695.0,582.0
66682,88.0,784.0,582.0
66683,88.0,784.0,582.0
66684,340.0,784.0,582.0
66685,237.0,784.0,582.0
66686,173.0,784.0,822.0
66687,173.0,784.0,229.0
66688,173.0,784.0,229.0
66689,173.0,784.0,229.0
66690,173.0,784.0,688.0
66691,1100.0,784.0,688.0
66692,148.0,784.0,688.0
66693,265.0,784.0,688.0
66694,265.0,784.0,688.0
66695,116.0,784.0,688.0
68280,734.0,443.0,1421.0
68281,734.0,443.0,1421.0
68282,2125.0,443.0,1421.0
68283,1004.0,443.0,1421.0
68284,1004.0,443.0,1421.0
68285,874.0,443.0,1421.0
68286,874.0,443.0,1421.0
68287,874.0,443.0,1421.0
68288,874.0,443.0,1421.0
68289,874.0,443.0,1421.0
68290,874.0,443.0,1421.0
68291,874.0,443.0,1421.0
68292,874.0,443.0,1421.0
68293,874.0,443.0,2500.0
68294,874.0,443.0,2500.0
68295,874.0,443.0,2500.0
68296,874.0,443.0,2500.0
68297,874.0,443.0,2181.0
68298,874.0,443.0,2181.0
68299,874.0,443.0,2181.0
68300,874.0,443.0,2181.0
68301,874.0,443.0,2181.0
68302,874.0,443.0,2181.0
68303,800.0,443.0,2181.0
68304,874.0,443.0,2181.0
68305,874.0,443.0,2181.0
68306,8744.0,443.0,2181.0
68307,87107.0,443.0,2181.0
68308,1107.0,443.0,2181.0
68309,2073.0,443.0,2181.0
68310,2073.0,443.0,2181.0
68311,2073.0,443.0,2181.0
68312,2073.0,443.0,2181.0
68313,2073.0,598.0,2181.0
68314,2073.0,598.0,2181.0
68315,13.0,598.0,2181.0
68316,207073.0,598.0,2181.0
68317,2073.0,598.0,2181.0
68318,2073.0,598.0,2181.0
68319,1092.0,598.0,2181.0
68320,1092.0,343.0,1759.0
68321,1092.0,343.0,1759.0
68322,1.0,343.0,3454.0
68323,1092.0,328.0,3454.0
68324,1092.0,328.0,3454.0
68325,1178.0,328.0,1936.0
68326,1178.0,328.0,1936.0
68327,1390.0,525.0,1936.0
68328,2024.0,525.0,1936.0
68329,2024.0,525.0,1936.0
68330,2024.0,525.0,1936.0
68331,2048.0,525.0,1936.0
68332,2048.0,525.0,1936.0
68333,2048.0,525.0,1936.0
68334,2048.0,525.0,1936.0
68335,2048.0,525.0,1936.0
68336,2048.0,525.0,1936.0
68337,1462.0,525.0,1936.0
68338,1308.0,525.0,1936.0
68339,1308.0,525.0,2959.0
68340,1308.0,525.0,2959.0
68341,1308.0,525.0,2149.0
68342,1308.0,525.0,2149.0
68343,1308.0,525.0,2149.0
68344,1308.0,525.0,2149.0
68345,1308.0,525.0,2702.0
68346,1308.0,525.0,2702.0
68347,1308.0,525.0,2702.0
68348,1727.0,525.0,1930.0
68349,1873.0,525.0,1930.0
68350,2609.0,525.0,1930.0
68351,2609.0,525.0,1930.0
68352,2609.0,525.0,1930.0
68353,2609.0,525.0,1930.0
68354,2609.0,525.0,1930.0
68355,2609.0,525.0,3146.0
68356,2609.0,525.0,2559.0
68357,2609.0,525.0,2559.0
68358,2609.0,525.0,1957.0
68359,1277.0,525.0,1957.0
68360,1277.0,525.0,1957.0
68361,1277.0,525.0,1957.0
68362,1277.0,525.0,1957.0
68363,1277.0,525.0,2420.0
68364,1277.0,525.0,2271.0
68365,1277.0,525.0,2068.0
68366,1277.0,525.0,2068.0
68367,1277.0,525.0,2068.0
68368,1277.0,525.0,2068.0
68369,1277.0,525.0,2068.0
68370,1125.0,525.0,2068.0
68371,1125.0,525.0,2068.0
68372,1125.0,525.0,2068.0
68373,1218.0,525.0,2068.0
68374,1228.0,525.0,2068.0
68375,1228.0,525.0,2068.0
68376,1228.0,525.0,2068.0
68377,1228.0,525.0,2068.0
68378,1639.0,525.0,2068.0
68379,1639.0,525.0,2068.0
68380,1639.0,525.0,2068.0
68381,1639.0,525.0,2068.0
68382,1639.0,525.0,2068.0
68383,1639.0,525.0,2068.0
68384,1639.0,525.0,2068.0
68385,1639.0,525.0,2647.0
68386,1639.0,525.0,2647.0
68387,1639.0,525.0,2049.0
68388,1639.0,525.0,2049.0
68389,1639.0,525.0,2049.0
68390,1639.0,525.0,2049.0
68391,11639.0,525.0,2049.0
68392,1639.0,525.0,2049.0
68393,1639.0,525.0,2049.0
68394,1639.0,525.0,1957.0
68395,1639.0,525.0,1957.0
68396,1639.0,525.0,1957.0
68397,1639.0,525.0,3625.0
68398,1246.0,525.0,3625.0
68399,1341.0,525.0,3625.0
68400,1341.0,525.0,3625.0
68401,1605.0,525.0,3625.0
68402,1605.0,525.0,3625.0
68403,1605.0,525.0,2331.0
68404,1605.0,525.0,2331.0
68405,1605.0,525.0,2331.0
68406,1605.0,525.0,2331.0
68407,1605.0,525.0,1393.0
68408,1605.0,525.0,1393.0
68409,1605.0,525.0,1393.0
68410,1605.0,525.0,1393.0
68411,1605.0,525.0,1393.0
68412,1525.0,525.0,1393.0
70142,1738.0,2511.0,538.0
70143,1738.0,2511.0,538.0
70144,100.0,2511.0,538.0
70145,1695.0,2511.0,538.0
70146,1695.0,2511.0,538.0
70147,1695.0,2511.0,538.0
70148,1695.0,2224.0,538.0
70149,1695.0,2224.0,538.0
70150,1695.0,2370.0,538.0
70151,1695.0,2370.0,538.0
70152,1673.0,2704.0,538.0
70153,1673.0,2704.0,538.0
70154,1673.0,2704.0,538.0
70155,1673.0,2474.0,538.0
70156,1673.0,2474.0,538.0
70157,1673.0,2474.0,538.0
70158,1673.0,2474.0,538.0
70159,1673.0,2374.0,538.0
70160,2007.0,2374.0,538.0
70161,2007.0,2001.0,538.0
70162,2007.0,3074.0,538.0
70163,2007.0,3074.0,538.0
70164,2007.0,2146.0,538.0
70165,2007.0,2146.0,538.0
70166,2007.0,1948.0,538.0
70167,2007.0,1422.0,538.0
70168,769.0,1349.0,538.0
70169,769.0,1349.0,538.0
70170,769.0,1349.0,538.0
70171,769.0,798.0,538.0
70172,769.0,798.0,538.0
70173,769.0,798.0,538.0
70174,769.0,798.0,538.0
70175,769.0,798.0,538.0
70176,769.0,798.0,538.0
70177,1825.0,3119.0,538.0
70178,1825.0,3119.0,538.0
70179,954.0,1719.0,538.0
70180,954.0,1719.0,538.0
70181,954.0,1719.0,538.0
70182,954.0,1719.0,538.0
70183,985.0,1719.0,538.0
70184,985.0,1719.0,538.0
70185,985.0,1719.0,538.0
70186,1730.0,1719.0,538.0
70187,1730.0,1719.0,538.0
