timestamp,emg1,emg2,emg3
1100,1669.0,4158.0,4467.0
1101,1669.0,4158.0,4467.0
1102,1669.0,4158.0,4467.0
1103,1669.0,4158.0,4467.0
1104,1895.0,4158.0,4467.0
1105,1895.0,4158.0,4467.0
1106,1895.0,4158.0,4467.0
1107,1895.0,4158.0,4467.0
1108,5979.0,4158.0,4467.0
1109,5979.0,4158.0,4467.0
1110,2276.0,4158.0,4908.0
1111,2276.0,4158.0,4908.0
1112,3272.0,4158.0,4908.0
1113,3272.0,4158.0,4908.0
1114,3272.0,4158.0,4908.0
1115,3272.0,4158.0,4908.0
1116,3272.0,4005.0,4908.0
1117,3272.0,3026.0,4908.0
1118,3272.0,3026.0,4908.0
1119,3272.0,3026.0,4908.0
1120,3272.0,3026.0,4908.0
1121,3272.0,1319.0,4908.0
1122,3272.0,3945.0,4908.0
1123,3272.0,1271.0,4908.0
1124,3272.0,1271.0,3910.0
1125,3272.0,1271.0,3910.0
1126,3272.0,1271.0,3910.0
1127,3272.0,1271.0,3910.0
1128,3272.0,4579.0,3910.0
1129,3272.0,1598.0,3910.0
1130,3272.0,1598.0,3910.0
1131,3272.0,3324.0,3910.0
1132,3272.0,3324.0,3910.0
1133,3272.0,3324.0,3910.0
1134,6098.0,3324.0,3910.0
1135,6098.0,3324.0,3910.0
1136,6098.0,2955.0,3910.0
1137,6098.0,2955.0,3910.0
1138,6098.0,2860.0,3910.0
1139,6211.0,2860.0,3910.0
1140,5961.0,2860.0,3910.0
1141,5961.0,2860.0,3910.0
1142,5961.0,2860.0,3910.0
1143,5961.0,2860.0,3910.0
1144,5961.0,2860.0,3910.0
1145,5961.0,2860.0,3910.0
1146,2697.0,2860.0,3910.0
1147,2697.0,4392.0,2833.0
1148,2697.0,4392.0,5111.0
1149,2697.0,4392.0,5111.0
1150,2697.0,4392.0,3807.0
1151,2697.0,4392.0,4178.0
1152,2697.0,4392.0,4178.0
1153,2697.0,4392.0,4178.0
1154,2697.0,4392.0,4178.0
1155,2697.0,4392.0,4178.0
1156,2697.0,1380.0,4178.0
1157,3704.0,1380.0,4178.0
1158,9615.0,3069.0,4178.0
1159,9615.0,3069.0,3457.0
1160,9615.0,3069.0,3457.0
1161,9615.0,3069.0,3457.0
1162,9615.0,3069.0,3559.0
1163,9615.0,3069.0,3559.0
1164,9615.0,2915.0,2488.0
1165,9615.0,2915.0,2355.0
1166,9615.0,2793.0,2355.0
1167,9615.0,2793.0,2355.0
1168,3153.0,2793.0,2355.0
1169,3153.0,1097.0,2355.0
1170,3153.0,1860.0,2355.0
1171,5165.0,1860.0,2355.0
1172,5165.0,1860.0,2355.0
1173,5165.0,1860.0,2355.0
1174,5165.0,1860.0,2355.0
1175,5165.0,2915.0,2355.0
1176,5165.0,2915.0,2355.0
1177,5165.0,3537.0,5198.0
1178,5165.0,3537.0,5198.0
1179,5165.0,2607.0,5198.0
1180,5165.0,2607.0,5198.0
1181,5165.0,2279.0,5198.0
1182,5165.0,2279.0,5198.0
1183,5165.0,2279.0,1787.0
1184,5165.0,2279.0,6090.0
1185,5165.0,2279.0,5583.0
1186,5165.0,2279.0,5583.0
1187,5165.0,2279.0,2418.0
1188,5165.0,2279.0,5242.0
1189,5165.0,2279.0,3351.0
1190,5165.0,2279.0,4852.0
1191,5165.0,2279.0,4852.0
1192,5260.0,2279.0,4852.0
1193,5260.0,2279.0,2657.0
1194,5260.0,2279.0,2383.0
1195,5260.0,2279.0,2383.0
1196,3697.0,2279.0,2383.0
1197,3697.0,1680.0,2383.0
1198,3697.0,1680.0,2383.0
1199,3697.0,1680.0,2383.0
1200,3697.0,1680.0,3025.0
1201,3697.0,1680.0,2905.0
1202,3697.0,1680.0,2905.0
1203,3697.0,1680.0,2905.0
1204,3697.0,1680.0,2905.0
1205,3697.0,1680.0,2905.0
1206,3697.0,1680.0,2905.0
1207,3697.0,1554.0,2905.0
1208,3697.0,1554.0,2905.0
1209,3697.0,1554.0,2905.0
1210,3504.0,1996.0,2905.0
1211,3504.0,1996.0,2905.0
1212,3504.0,1996.0,2905.0
1213,3504.0,1996.0,2905.0
1214,5844.0,2521.0,2905.0
1215,5844.0,2521.0,2905.0
1216,5844.0,2521.0,2905.0
1217,5844.0,2521.0,2905.0
1218,5844.0,2521.0,2905.0
1219,5844.0,2521.0,2905.0
1220,3436.0,1678.0,2905.0
1221,3436.0,1678.0,2905.0
1222,3436.0,2576.0,2905.0
1223,3436.0,766.0,2905.0
1224,3436.0,766.0,2905.0
1225,3436.0,766.0,2905.0
1226,3436.0,1848.0,2905.0
1227,3436.0,1848.0,2905.0
1228,3436.0,1848.0,2905.0
1229,3436.0,1848.0,2905.0
1230,3436.0,5154.0,2905.0
1231,3436.0,5154.0,2905.0
1232,3436.0,5154.0,2905.0
1233,3545.0,5154.0,2905.0
1234,3545.0,5154.0,2905.0
1235,3545.0,5154.0,2905.0
1236,3545.0,5154.0,2905.0
1237,3545.0,5154.0,2905.0
1238,3545.0,5154.0,2905.0
1239,3545.0,2548.0,1320.0
1240,3545.0,2548.0,1320.0
2943,3442.0,3699.0,2477.0
2944,3442.0,3699.0,2477.0
2945,3442.0,3699.0,2477.0
2946,3442.0,4575.0,4797.0
2947,3442.0,4575.0,4797.0
2948,3.0,4575.0,2527.0
2949,3442.0,4575.0,2567.0
2950,3442.0,4575.0,2567.0
2951,3442.0,4575.0,2567.0
2952,3442.0,4575.0,2567.0
2953,3442.0,4575.0,2567.0
2954,3442.0,4575.0,2567.0
2955,3442.0,4575.0,3296.0
2956,3442.0,4575.0,3296.0
2957,3442.0,4575.0,2372.0
2958,3442.0,4575.0,2372.0
2959,3442.0,4575.0,2372.0
2960,3442.0,4575.0,2372.0
2961,3442.0,4575.0,2372.0
2962,3442.0,4575.0,2372.0
2963,3442.0,4575.0,2372.0
2964,3442.0,4575.0,2372.0
2965,3442.0,4575.0,2372.0
2966,3442.0,4575.0,2372.0
2967,3442.0,4575.0,2372.0
2968,3442.0,4575.0,2372.0
2969,3442.0,4575.0,2372.0
2970,3442.0,4575.0,2372.0
2971,3442.0,4575.0,2372.0
2972,3442.0,4575.0,2372.0
2973,2288.0,4575.0,2372.0
2974,3463.0,4575.0,2442.0
2975,3463.0,4575.0,2442.0
2976,3463.0,4575.0,2442.0
2977,3463.0,4575.0,2442.0
2978,3463.0,4575.0,2442.0
2979,3463.0,4575.0,2442.0
2980,3463.0,4575.0,2442.0
2981,2516.0,4575.0,2442.0
2982,2516.0,4575.0,2442.0
2983,2516.0,4575.0,2442.0
2984,2516.0,4575.0,2442.0
2985,2516.0,4575.0,2442.0
2986,2516.0,4575.0,2442.0
2987,2516.0,4575.0,2442.0
2988,2516.0,4575.0,2442.0
2989,2516.0,2266.0,2442.0
2990,2516.0,2975.0,2442.0
2991,2516.0,1529.0,2442.0
2992,16.0,1529.0,2442.0
2993,2516.0,1529.0,2442.0
2994,34625.0,1529.0,1631.0
2995,2516.0,1529.0,1631.0
2996,2516.0,1529.0,1631.0
2997,2516.0,1529.0,1631.0
2998,2516.0,1529.0,1631.0
2999,251616.0,3726.0,1631.0
3000,2516.0,3726.0,1631.0
3001,2516.0,4424.0,1631.0
3002,2516.0,4424.0,1631.0
3003,2516.0,4424.0,1631.0
3004,2516.0,4424.0,1631.0
3005,2516.0,2859.0,1631.0
3006,2516.0,2859.0,1631.0
3007,2516.0,2859.0,1631.0
3008,2516.0,2859.0,1631.0
3009,2516.0,2859.0,1631.0
3010,2516.0,3900.0,1631.0
3011,2516.0,3900.0,1631.0
3012,2516.0,3900.0,1631.0
3013,2516.0,3900.0,1631.0
3014,2516.0,5237.0,1631.0
3015,2516.0,5237.0,1631.0
3016,2516.0,5237.0,1631.0
3017,2516.0,5237.0,1631.0
3018,2516.0,2633.0,1631.0
3019,2516.0,2633.0,1631.0
3020,2516.0,3134.0,1631.0
3021,2516.0,3134.0,1631.0
3022,2516.0,3134.0,1631.0
3023,2516.0,3134.0,1631.0
3024,2516.0,3134.0,1631.0
3025,2516.0,3134.0,1631.0
3026,2516.0,3134.0,1631.0
3027,2516.0,3134.0,1631.0
3028,2516.0,3134.0,1631.0
3029,2516.0,3134.0,3059.0
3030,2516.0,3134.0,3059.0
3031,2516.0,3134.0,1724.0
3032,2516.0,3134.0,1724.0
3033,2516.0,6120.0,1724.0
3034,2516.0,6120.0,1724.0
3035,2516.0,6120.0,1724.0
3036,2516.0,6120.0,4046.0
3037,2516.0,6095.0,4046.0
3038,2516.0,3722.0,4046.0
3039,2516.0,3722.0,4046.0
3040,2516.0,1870.0,4046.0
3041,2516.0,1870.0,4046.0
3042,2516.0,1870.0,4046.0
3043,2516.0,1870.0,4046.0
3044,25116.0,1870.0,4046.0
3045,2516.0,1870.0,4046.0
3046,2516.0,1870.0,4046.0
3047,2516.0,1870.0,4046.0
3048,2516.0,1870.0,4046.0
3049,2516.0,1870.0,3972.0
3050,2516.0,1870.0,3972.0
3051,2516.0,1870.0,3972.0
3052,2516.0,1870.0,3972.0
3053,2516.0,1870.0,3972.0
3054,2516.0,1870.0,3972.0
3055,2516.0,1870.0,3972.0
3056,2516.0,1870.0,3972.0
3057,2516.0,1870.0,3972.0
3058,2516.0,2708.0,3972.0
3059,2516.0,2708.0,3972.0
3060,2516.0,3123.0,3972.0
3061,2516.0,3123.0,3972.0
3062,2516.0,3279.0,3972.0
3063,2516.0,3279.0,3972.0
3064,2516.0,3279.0,3972.0
3065,2516.0,3279.0,3972.0
3066,2516.0,3279.0,3972.0
3067,2516.0,3279.0,3972.0
3068,2516.0,2904.0,3972.0
3069,2516.0,2904.0,3972.0
3070,2516.0,2904.0,3972.0
3071,2516.0,2904.0,3972.0
3072,2516.0,3397.0,3972.0
3073,516.0,3397.0,3972.0
3074,2516.0,3397.0,3972.0
3075,2516.0,3397.0,3972.0
3076,2516.0,3968.0,3972.0
3077,2516.0,3968.0,3972.0
3078,2516.0,3968.0,3972.0
3658,906.0,506.0,5505.0
3659,565.0,1520565.0,1520.0
3660,717.0,24.0,2430.0
3661,1012.0,2926012.0,2926.0
4264,1795.0,231795.0,2334.0
4265,494.0,462900.0,4629.0
4266,1340.0,4629.0,3059.0
4267,1340.0,4629.0,3059.0
4268,1340.0,4629.0,3059.0
4269,1340.0,2273.0,3059.0
4270,1340045.0,2273.0,3059.0
4271,1045.0,2273.0,3059.0
4272,1045.0,2273.0,3059.0
4273,1045.0,2273.0,3059.0
4274,1045.0,2273.0,3059.0
4275,1045.0,2273.0,3059.0
4276,1045.0,3242.0,3059.0
4277,1045.0,3242.0,3059.0
4278,1045.0,2832.0,3059.0
4279,1045.0,2832.0,3059.0
4280,812.0,2210.0,3059.0
4281,812.0,2210.0,3059.0
4282,812.0,2210.0,3059.0
4283,812.0,1670.0,3059.0
4284,711.0,1670.0,3059.0
4285,711.0,1670.0,3059.0
4286,711.0,1670.0,3059.0
4287,711.0,3607.0,3059.0
4288,711.0,3607.0,3059.0
4289,711.0,3607.0,3059.0
4290,711.0,3607.0,3059.0
4291,711.0,3607.0,3059.0
4292,711.0,3607.0,3059.0
4293,711.0,3607.0,3059.0
4294,711.0,3607.0,3059.0
4295,711.0,3607.0,3059.0
4296,1462.0,3607.0,3059.0
4297,1462.0,3607.0,3059.0
4298,1462.0,3607.0,3059.0
4299,1462.0,3607.0,3059.0
4300,976.0,3607.0,3059.0
4301,976.0,3607.0,3059.0
4302,1336.0,3607.0,3059.0
4303,1336.0,3607.0,3059.0
4304,1261.0,3607.0,3059.0
4305,1261.0,3607.0,3059.0
4306,2702.0,3607.0,3059.0
4307,2702.0,3607.0,3059.0
4308,2702.0,3227.0,3059.0
4309,2702.0,3227.0,3059.0
4310,2702.0,3227.0,3059.0
4311,2702.0,3227.0,3059.0
4312,906.0,3227.0,3059.0
4313,906.0,3227.0,3059.0
4314,664.0,3227.0,3059.0
4315,1508.0,3227.0,3059.0
4316,1508.0,3227.0,3059.0
4317,1517.0,3227.0,3059.0
4318,1517.0,3227.0,3059.0
4319,1517.0,3227.0,3059.0
4320,1098.0,3227.0,3059.0
4321,1098.0,3227.0,3059.0
4322,1098.0,3469.0,3059.0
4323,1098.0,3469.0,3059.0
4324,1872.0,3469.0,3059.0
4325,1872.0,3469.0,3059.0
4326,719.0,3469.0,3059.0
4327,1674.0,3469.0,3059.0
4328,1674.0,3469.0,3059.0
4329,1674.0,3469.0,3059.0
4330,1674.0,3469.0,3059.0
4331,1674.0,3469.0,3059.0
4332,1674.0,3469.0,3059.0
4333,1674.0,2899.0,3059.0
4334,1674.0,2899.0,3059.0
4335,1674.0,3588.0,3059.0
4336,1674.0,3588.0,3059.0
4337,1647.0,2411.0,3059.0
4338,1647.0,2411.0,3059.0
4339,1647.0,3679.0,3059.0
5978,816.0,1122.0,5613.0
5979,816.0,1122.0,5613.0
5980,816.0,1122.0,5613.0
5981,816.0,1809.0,5613.0
5982,816.0,1809.0,5613.0
5983,816.0,1809.0,5613.0
5984,816.0,1809.0,5613.0
5985,816.0,1809.0,5613.0
5986,816.0,1809.0,5613.0
5987,816.0,825.0,2674.0
5988,816.0,825.0,2674.0
5989,816.0,1292.0,2674.0
5990,816.0,1292.0,2674.0
5991,816.0,1292.0,4966.0
5992,816.0,1292.0,4966.0
5993,816.0,1292.0,3959.0
5994,816.0,1292.0,3959.0
5995,816.0,1292.0,3959.0
5996,816.0,1292.0,3959.0
5997,816.0,1292.0,1831.0
5998,816.0,1292.0,1831.0
5999,816.0,1292.0,3086.0
6000,816.0,1292.0,3086.0
6001,816.0,1292.0,3086.0
6002,816.0,1292.0,3086.0
6003,816.0,1292.0,3086.0
6004,816.0,1292.0,3086.0
6005,816.0,1292.0,3086.0
6006,816.0,1292.0,3086.0
6007,816.0,1292.0,3086.0
6008,816.0,1292.0,3086.0
6009,816.0,1292.0,3086.0
6010,816.0,1292.0,3086.0
6011,816.0,1292.0,3086.0
6012,816.0,1292.0,3086.0
6013,816.0,1292.0,3086.0
6014,816.0,331.0,3086.0
6015,816.0,331.0,3394.0
6016,816.0,331.0,3394.0
6017,816.0,331.0,3394.0
6018,810.0,331.0,3394.0
6019,816.0,331.0,3394.0
6020,816.0,331.0,3394.0
6021,816.0,626.0,3394.0
6022,816.0,626.0,3394.0
6023,816.0,626.0,3394.0
6024,816.0,626.0,3394.0
6025,816.0,626.0,3394.0
6026,816.0,626.0,3394.0
6027,816.0,626.0,3394.0
6028,816.0,626.0,3394.0
6029,816.0,626.0,3394.0
6030,816.0,626.0,3394.0
6031,816.0,626.0,3394.0
6032,816.0,626.0,3394.0
6033,816.0,626.0,3394.0
6034,816.0,626.0,3394.0
6035,816.0,626.0,3394.0
6036,816.0,626.0,3394.0
6037,816.0,626.0,3394.0
6038,816.0,644.0,3394.0
6039,816.0,644.0,3394.0
6040,816.0,730.0,3394.0
6041,816.0,482.0,3394.0
6042,816.0,641.0,3853.0
6043,816.0,778.0,3853.0
6044,816.0,778.0,3853.0
6045,816.0,638.0,3853.0
6046,816.0,638.0,3853.0
6047,816.0,638.0,3853.0
6048,816.0,638.0,3853.0
6049,816.0,638.0,2609.0
6050,816.0,638.0,1747.0
6051,816.0,638.0,3415.0
6052,816.0,638.0,2981.0
6053,816.0,638.0,2981.0
6054,816.0,638.0,2981.0
6055,816.0,638.0,2981.0
6056,816.0,638.0,2981.0
6057,816.0,638.0,2981.0
6058,816.0,638.0,2981.0
6059,816.0,532.0,3775.0
6060,816.0,532.0,3775.0
6061,816.0,532.0,3775.0
6062,816.0,532.0,3775.0
6063,816.0,532.0,3775.0
6064,816.0,532.0,2817.0
6065,816.0,532.0,2817.0
6066,6.0,532.0,2817.0
6067,8116.0,532.0,2817.0
6068,816.0,532.0,2817.0
6069,816.0,1146.0,2817.0
6070,816.0,1935.0,2817.0
6071,816.0,1935.0,2817.0
6072,816.0,1935.0,2817.0
6073,816.0,1935.0,2817.0
6074,816.0,577.0,2817.0
6075,816.0,670.0,2817.0
6076,816.0,928.0,2817.0
6077,816.0,928.0,2817.0
6078,816.0,741.0,2817.0
6079,816.0,741.0,2817.0
6080,816.0,741.0,2817.0
6081,816.0,1014.0,2817.0
6082,816.0,1870.0,2817.0
6083,816.0,1870.0,2817.0
6084,816.0,1870.0,2817.0
6085,816.0,1870.0,2817.0
6086,816.0,1870.0,2817.0
6087,816.0,1870.0,2817.0
6088,816.0,1870.0,2817.0
6089,816.0,1870.0,2817.0
6090,816.0,1870.0,2817.0
6091,816.0,1870.0,2817.0
6092,816.0,1870.0,2817.0
6093,816.0,1870.0,2817.0
6094,816.0,1247.0,2817.0
6095,816.0,1247.0,2817.0
6096,816.0,1247.0,2817.0
6097,816.0,1247.0,2817.0
6098,816.0,308.0,2817.0
6099,816.0,308.0,2817.0
6100,816.0,308.0,2817.0
6101,816.0,308.0,2817.0
6102,816.0,308.0,2817.0
6103,816.0,308.0,2817.0
6104,816.0,308.0,2817.0
6105,816.0,308.0,2817.0
6106,816.0,308.0,2817.0
6107,816.0,1024.0,2817.0
6108,816.0,1024.0,2817.0
6109,816.0,1024.0,2817.0
6110,816.0,1024.0,2817.0
6111,816.0,1024.0,2817.0
6112,816.0,1024.0,2817.0
6113,816.0,1024.0,2817.0
6114,816.0,1024.0,2817.0
6115,816.0,496.0,2817.0
7848,556.0,1356.0,3754.0
7849,556.0,1356.0,3754.0
7850,556.0,1356.0,3754.0
7851,556.0,1813.0,3754.0
7852,556.0,1813.0,3754.0
7853,556.0,1813.0,3754.0
7854,556.0,1813.0,3754.0
7855,556.0,992.0,3754.0
7856,556.0,992.0,3754.0
7857,556.0,992.0,3754.0
7858,556.0,992.0,3754.0
7859,55.0,992.0,3754.0
7860,55656.0,992.0,3754.0
7861,556.0,992.0,3754.0
7862,556.0,992.0,3754.0
7863,556.0,992.0,3754.0
7864,556.0,992.0,3754.0
7865,556.0,992.0,1302.0
7866,556.0,992.0,1302.0
7867,556.0,992.0,1302.0
7868,556.0,992.0,1302.0
7869,556.0,992.0,1302.0
7870,1629.0,992.0,1302.0
7871,1629.0,1848.0,1302.0
7872,1629.0,1265.0,1302.0
7873,1629.0,1265.0,1302.0
7874,1629.0,1265.0,1302.0
7875,1629.0,1265.0,1302.0
7876,1629.0,1265.0,1302.0
7877,1629.0,1265.0,1302.0
7878,1629.0,1265.0,1084.0
7879,1629.0,2340.0,1084.0
7880,1629.0,2340.0,1084.0
7881,1629.0,2340.0,1084.0
7882,1629.0,2340.0,1084.0
7883,1629.0,1623.0,1084.0
7884,1629.0,1623.0,1084.0
7885,1629.0,1352.0,1084.0
7886,1629.0,1352.0,1084.0
7887,562.0,1352.0,1180.0
7888,562.0,1352.0,3783.0
7889,562.0,1352.0,3783.0
7890,562.0,1352.0,1580.0
7891,562.0,1352.0,1580.0
7892,562.0,1352.0,1580.0
7893,562.0,1352.0,1580.0
7894,562.0,1352.0,1580.0
7895,1209.0,1352.0,1580.0
7896,1209.0,1352.0,1580.0
7897,1209.0,1352.0,1580.0
7898,1209.0,1352.0,1580.0
7899,552.0,1352.0,1580.0
7900,552.0,1352.0,1580.0
7901,552.0,1352.0,1580.0
7902,552.0,1352.0,1580.0
7903,552.0,1352.0,1580.0
7904,552.0,1352.0,2532.0
7905,552.0,1352.0,2532.0
7906,552.0,1352.0,2532.0
7907,552.0,1352.0,2532.0
7908,552.0,1352.0,2532.0
7909,552.0,1352.0,2532.0
7910,552.0,1352.0,2532.0
7911,552.0,1352.0,2532.0
7912,552.0,1352.0,2532.0
7913,552.0,1382.0,2532.0
7914,552.0,1004.0,2532.0
7915,552.0,1004.0,2532.0
7916,552.0,2239.0,2532.0
7917,552.0,1943.0,2532.0
7918,552.0,1639.0,2532.0
7919,552.0,677.0,2532.0
7920,552.0,677.0,2532.0
7921,552.0,335.0,2532.0
7922,552.0,335.0,2532.0
7923,552.0,335.0,2532.0
7924,552.0,335.0,2532.0
7925,552.0,335.0,2532.0
7926,837.0,335.0,2532.0
7927,837.0,335.0,2532.0
7928,681.0,335.0,2532.0
7929,681.0,335.0,2532.0
7930,681.0,335.0,2532.0
7931,681.0,1365.0,2532.0
7932,681.0,1365.0,2532.0
7933,681.0,1365.0,2532.0
7934,681.0,1365.0,2532.0
7935,681.0,1365.0,2532.0
7936,612.0,1365.0,2532.0
7937,612.0,1365.0,4039.0
7938,612.0,1365.0,4039.0
7939,612.0,1365.0,4039.0
7940,612.0,1365.0,3143.0
7941,612.0,1365.0,3143.0
7942,612.0,1365.0,3143.0
7943,612.0,1365.0,3143.0
7944,612.0,1365.0,3143.0
7945,612.0,1365.0,3143.0
7946,612.0,1365.0,3143.0
7947,612.0,1365.0,3143.0
7948,612.0,1365.0,3143.0
7949,612.0,1365.0,3143.0
7950,990.0,1365.0,3143.0
7951,1545.0,1365.0,3143.0
7952,1545.0,1365.0,3143.0
7953,1545.0,1365.0,3143.0
7954,1545.0,1365.0,3143.0
7955,1545.0,1365.0,3143.0
7956,1545.0,604.0,3143.0
7957,1545.0,604.0,3143.0
7958,1545.0,604.0,3143.0
7959,1545.0,604.0,3143.0
7960,1545.0,604.0,3143.0
7961,1545.0,604.0,3143.0
7962,1545.0,604.0,3143.0
7963,1545.0,604.0,3143.0
7964,835.0,604.0,3143.0
7965,35.0,604.0,3143.0
7966,688835.0,604.0,3143.0
7967,835.0,604.0,3143.0
7968,835.0,604.0,3143.0
7969,835.0,604.0,3393.0
7970,835.0,604.0,3393.0
7971,835.0,604.0,3044.0
7972,835.0,604.0,3044.0
7973,835.0,604.0,3044.0
7974,835.0,604.0,3044.0
7975,835.0,604.0,3044.0
7976,835.0,604.0,3044.0
7977,835.0,604.0,3044.0
7978,835.0,604.0,3044.0
7979,835.0,604.0,3044.0
7980,835.0,604.0,3044.0
7981,835.0,604.0,3044.0
7982,835.0,604.0,3044.0
7983,835.0,604.0,3044.0
7984,835.0,604.0,3044.0
7985,835.0,604.0,3044.0
7986,937.0,604.0,3044.0
7987,937.0,604.0,3044.0
9578,423.0,210.0,909.0
9579,128.0,210.0,909.0
9580,128.0,210.0,909.0
9581,128.0,210.0,909.0
9582,597.0,210.0,909.0
9583,597.0,210.0,1747.0
9584,597.0,210.0,647.0
9585,597.0,210.0,647.0
9586,597.0,331.0,886.0
9587,597.0,331.0,886.0
9588,437.0,331.0,886.0
9589,437.0,331.0,886.0
9590,437.0,331.0,886.0
9591,437.0,327.0,886.0
9592,539.0,327.0,886.0
9593,539.0,299.0,886.0
9594,539.0,299.0,886.0
9595,539.0,299.0,886.0
9596,539.0,299.0,886.0
9597,298.0,299.0,886.0
9598,298.0,299.0,1089.0
9599,469.0,299.0,1089.0
9600,469.0,299.0,859.0
9601,469.0,299.0,1144.0
9602,485.0,299.0,556.0
9603,485.0,259.0,900.0
9604,485.0,259.0,1059.0
9605,339.0,259.0,1059.0
9606,339.0,259.0,643.0
9607,339.0,259.0,643.0
9608,339.0,259.0,643.0
9609,339.0,259.0,339.0
9610,339.0,259.0,339.0
9611,339.0,259.0,2062.0
9612,339.0,259.0,2062.0
9613,339.0,259.0,1313.0
9614,339.0,259.0,1313.0
9615,339.0,259.0,1313.0
9616,339.0,259.0,1344.0
9617,339.0,259.0,1344.0
9618,339.0,259.0,1344.0
9619,339.0,259.0,1252.0
9620,339.0,259.0,1252.0
9621,339.0,259.0,1252.0
9622,339.0,259.0,490.0
9623,339.0,259.0,490.0
9624,339.0,259.0,1342.0
9625,339.0,259.0,1342.0
9626,339.0,259.0,906.0
9627,339.0,259.0,906.0
9628,339.0,259.0,906.0
9629,339.0,259.0,278.0
9630,339.0,259.0,278.0
9631,339.0,259.0,278.0
9632,339.0,259.0,726.0
9633,339.0,259.0,726.0
9634,339.0,259.0,726.0
9635,339.0,259.0,726.0
9636,339.0,259.0,726.0
9637,339.0,259.0,726.0
9638,339.0,259.0,726.0
9639,339.0,219.0,726.0
9640,339.0,219.0,726.0
9641,339.0,219.0,726.0
9642,339.0,219.0,726.0
9643,339.0,219.0,726.0
9644,339.0,219.0,726.0
9645,339.0,219.0,726.0
9646,339.0,219.0,726.0
9647,339.0,219.0,726.0
9648,339.0,219.0,726.0
9649,339.0,219.0,914.0
9650,339.0,170.0,914.0
9651,339.0,170.0,914.0
9652,211.0,170.0,914.0
9653,211.0,170.0,914.0
9654,211.0,170.0,914.0
9655,211.0,170.0,914.0
9656,211.0,170.0,914.0
9657,211.0,170.0,914.0
9658,211.0,170.0,760.0
9659,211.0,170.0,760.0
9660,211.0,387.0,1114.0
9661,211.0,387.0,1114.0
9662,211.0,387.0,733.0
9663,211.0,387.0,733.0
9664,211.0,387.0,733.0
9665,211.0,387.0,733.0
9666,211.0,387.0,746.0
9667,333.0,387.0,746.0
9668,333.0,387.0,319.0
9669,333.0,387.0,319.0
9670,333.0,387.0,319.0
9671,337.0,387.0,319.0
9672,337.0,387.0,319.0
9673,337.0,387.0,319.0
9674,337.0,387.0,319.0
9675,337.0,103.0,319.0
9676,337.0,123.0,319.0
9677,673.0,123.0,319.0
9678,673.0,123.0,319.0
9679,673.0,123.0,319.0
9680,673.0,123.0,319.0
9681,673.0,123.0,319.0
9682,673.0,123.0,319.0
9683,673.0,123.0,319.0
9684,164.0,123.0,319.0
9685,164.0,123.0,319.0
9686,164.0,123.0,319.0
9687,164.0,123.0,319.0
9688,164.0,123.0,319.0
9689,164.0,123.0,319.0
9690,164.0,123.0,319.0
9691,164.0,123.0,319.0
9692,164.0,123.0,319.0
9693,164.0,123.0,319.0
9694,164.0,123.0,319.0
9695,164.0,123.0,319.0
9696,164.0,402.0,319.0
9697,164.0,402.0,319.0
9698,164.0,214.0,319.0
9699,164.0,275.0,709.0
9700,164.0,275.0,709.0
9701,164.0,275.0,710.0
9702,222.0,275.0,710.0
9703,222.0,275.0,710.0
9704,457.0,275.0,710.0
9705,457.0,248.0,710.0
9706,457.0,248.0,710.0
9707,457.0,248.0,710.0
9708,457.0,312.0,710.0
9709,457.0,312.0,710.0
9710,457.0,312.0,710.0
9711,457.0,305.0,710.0
11512,146.0,135.0,477.0
11513,146.0,135.0,477.0
11514,146.0,135.0,477.0
11515,413.0,135.0,477.0
11516,413.0,135.0,477.0
11517,413.0,166.0,477.0
11518,369.0,166.0,477.0
11519,369.0,166.0,477.0
11520,369.0,166.0,477.0
11521,369.0,166.0,477.0
11522,369.0,166.0,477.0
11523,369.0,166.0,477.0
11524,331.0,166.0,477.0
11525,331.0,166.0,477.0
11526,427.0,166.0,477.0
11527,427.0,166.0,477.0
11528,427.0,166.0,477.0
11529,427.0,166.0,477.0
11530,427.0,166.0,477.0
11531,363.0,166.0,477.0
11532,363.0,166.0,477.0
11533,363.0,166.0,477.0
11534,363.0,166.0,572.0
11535,363.0,98.0,572.0
11536,363.0,159.0,572.0
11537,363.0,159.0,572.0
11538,363.0,159.0,1307.0
11539,445.0,159.0,1307.0
11540,445.0,159.0,1307.0
11541,445.0,159.0,1307.0
11542,445.0,159.0,1307.0
11543,445.0,159.0,591.0
11544,445.0,149.0,591.0
11545,445.0,149.0,591.0
11546,445.0,473.0,591.0
11547,445.0,473.0,591.0
11548,445.0,473.0,1296.0
11549,453.0,548.0,470.0
11550,453.0,548.0,470.0
11551,453.0,548.0,470.0
11552,453.0,548.0,1278.0
11553,453.0,548.0,1278.0
11554,453.0,217.0,1278.0
11555,453.0,225.0,1278.0
11556,453.0,225.0,1278.0
11557,453.0,225.0,1278.0
11558,453.0,231.0,1278.0
11559,453.0,238.0,1278.0
11560,453.0,238.0,1278.0
11561,453.0,238.0,1278.0
11562,453.0,238.0,1278.0
11563,453.0,238.0,1278.0
11564,453.0,238.0,1278.0
11565,453.0,238.0,1278.0
11566,453.0,238.0,1278.0
11567,453.0,238.0,1278.0
11568,453.0,238.0,1278.0
11569,453.0,238.0,1278.0
11570,453.0,238.0,1278.0
11571,453.0,238.0,1278.0
11572,453.0,238.0,1278.0
11573,453.0,238.0,507.0
11574,453.0,238.0,507.0
11575,453.0,238.0,1149.0
11576,453.0,238.0,1149.0
11577,453.0,238.0,1255.0
11578,453.0,257.0,1255.0
11579,453.0,242.0,908.0
11580,453.0,242.0,908.0
11581,3.0,242.0,578.0
11582,453.0,242.0,578.0
11583,292.0,242.0,578.0
11584,292.0,242.0,578.0
11585,212.0,242.0,578.0
11586,212.0,242.0,1093.0
11587,212.0,242.0,1093.0
11588,212.0,242.0,1093.0
11589,526.0,242.0,1093.0
11590,526.0,242.0,337.0
11591,579.0,242.0,337.0
11592,579.0,242.0,337.0
11593,579.0,242.0,337.0
11594,579.0,242.0,337.0
11595,579.0,242.0,337.0
11596,392.0,242.0,337.0
11597,392.0,242.0,337.0
11598,392.0,242.0,1176.0
11599,392.0,398.0,1176.0
11600,392.0,398.0,1046.0
11601,392.0,398.0,1309.0
11602,392.0,398.0,1309.0
11603,392.0,398.0,1309.0
11604,92.0,398.0,1309.0
11605,392.0,398.0,1309.0
11606,392.0,398.0,1309.0
11607,392.0,398.0,1309.0
11608,392.0,398.0,1309.0
11609,392.0,398.0,1126.0
11610,392.0,398.0,1126.0
11611,392.0,398.0,1126.0
11612,392.0,398.0,1126.0
11613,475.0,398.0,1126.0
11614,475.0,398.0,1126.0
11615,475.0,398.0,1126.0
11616,475.0,398.0,1126.0
11617,475.0,92.0,1126.0
11618,475.0,302.0,1126.0
11619,475.0,302.0,1126.0
11620,475.0,302.0,1126.0
11621,475.0,302.0,1126.0
11622,475.0,302.0,1126.0
11623,475.0,302.0,1126.0
11624,475.0,302.0,1126.0
11625,475.0,302.0,1126.0
11626,475.0,302.0,1126.0
11627,475.0,302.0,1126.0
11628,475.0,302.0,1126.0
11629,475.0,302.0,1436.0
11630,475.0,165.0,848.0
11631,475.0,165.0,848.0
11632,475.0,165.0,848.0
11633,475.0,165.0,848.0
11634,475.0,165.0,931.0
11635,475.0,165.0,931.0
11636,475.0,165.0,931.0
11637,475.0,165.0,931.0
11638,475.0,165.0,931.0
11639,475.0,165.0,931.0
11640,475.0,165.0,931.0
11641,475.0,243.0,931.0
11642,475.0,243.0,931.0
11643,475.0,243.0,931.0
11644,475.0,243.0,931.0
11645,475.0,243.0,931.0
11646,475.0,243.0,931.0
11647,475.0,243.0,434.0
11648,475.0,243.0,781.0
11649,475.0,243.0,781.0
11650,475.0,243.0,781.0
13145,1993.0,1670.0,467.0
13146,1993.0,1670.0,467.0
13147,1993.0,1670.0,467.0
13148,3582.0,1670.0,467.0
13149,3582.0,1670.0,467.0
13150,3582.0,1670.0,467.0
13151,2058.0,1670.0,467.0
13152,2058.0,1670.0,186.0
13153,2058.0,1670.0,186.0
13154,2058.0,1670.0,186.0
13155,2058.0,1670.0,186.0
13156,2058.0,1670.0,471.0
13157,2012.0,1670.0,471.0
13158,2012.0,1670.0,471.0
13159,2012.0,1670.0,471.0
13160,2012.0,1670.0,471.0
13161,2012.0,1670.0,471.0
13162,2012.0,1670.0,471.0
13163,2012.0,1670.0,471.0
13164,2012.0,1670.0,471.0
13165,2012.0,1670.0,471.0
13166,2012.0,1670.0,471.0
13167,2841.0,1670.0,471.0
13168,2841.0,1670.0,471.0
13169,1795.0,1670.0,471.0
13170,1795.0,1670.0,471.0
13171,1795.0,1670.0,471.0
13172,2226.0,1670.0,452.0
13173,2226.0,1670.0,452.0
13174,2417.0,1670.0,452.0
13175,2417.0,1670.0,361.0
13176,2417.0,1670.0,361.0
13177,1482.0,1670.0,361.0
13178,1482.0,1670.0,361.0
13179,1525.0,1670.0,361.0
13180,1525.0,1670.0,287.0
13181,1525.0,1670.0,287.0
13182,2371.0,1670.0,287.0
13183,2663.0,1670.0,287.0
13184,2663.0,1670.0,287.0
13185,4341.0,1670.0,287.0
13186,4341.0,1670.0,795.0
13187,4341.0,1670.0,795.0
13188,4341.0,1670.0,795.0
13189,4341.0,1670.0,743.0
13190,4341.0,1670.0,743.0
13191,4341.0,1670.0,743.0
13192,4341.0,1670.0,743.0
13193,4341.0,1670.0,743.0
13194,4341.0,1670.0,743.0
13195,4341.0,1670.0,743.0
13196,4341.0,1670.0,743.0
13197,4341.0,1670.0,743.0
13198,4341.0,1670.0,743.0
13199,4341.0,1670.0,743.0
13200,4341.0,1670.0,743.0
13201,4341.0,1670.0,743.0
13202,4341.0,1670.0,743.0
13203,4341.0,1670.0,743.0
13204,4341.0,1670.0,743.0
13205,434341.0,1670.0,743.0
13206,4341.0,1670.0,311.0
13207,4341.0,1670.0,311.0
13208,4341.0,1670.0,311.0
13209,4341.0,1670.0,311.0
13210,434068.0,1670.0,311.0
13211,3068.0,1670.0,311.0
13212,3068.0,1670.0,311.0
13213,1421.0,1670.0,311.0
13214,1421.0,1670.0,311.0
13215,2997.0,1670.0,311.0
13216,2997.0,1670.0,311.0
13217,1137.0,1670.0,311.0
13218,1137.0,1670.0,311.0
13219,1137.0,1670.0,311.0
13220,1137.0,1670.0,311.0
13221,1137.0,1670.0,311.0
13222,1137.0,1670.0,311.0
13223,2684.0,1670.0,311.0
13224,2684.0,1670.0,311.0
13225,2684.0,1670.0,311.0
13226,2684.0,1670.0,554.0
13227,2497.0,1670.0,554.0
13228,2497.0,1670.0,554.0
14978,516.0,1183.0,2615.0
14979,516.0,1183.0,2615.0
14980,516.0,1183.0,2615.0
14981,516.0,1338.0,2615.0
14982,516.0,1338.0,2615.0
14983,403.0,1338.0,2615.0
14984,403.0,1605.0,2615.0
14985,403.0,1605.0,2615.0
14986,403.0,1590.0,2615.0
14987,403.0,1551.0,2615.0
14988,403.0,1551.0,2615.0
14989,403.0,488.0,2615.0
14990,403.0,1523.0,2615.0
14991,403.0,1523.0,2615.0
14992,403.0,698.0,2615.0
14993,403.0,698.0,2615.0
14994,403.0,1309.0,2615.0
14995,40.0,1309.0,2615.0
14996,403.0,1309.0,2615.0
14997,354.0,1309.0,2615.0
14998,359.0,1309.0,2615.0
14999,359.0,1309.0,2615.0
15000,359.0,1309.0,2615.0
15001,359.0,1561.0,2615.0
15002,359.0,1561.0,2615.0
15003,359.0,1561.0,2615.0
15004,359.0,1561.0,2615.0
15005,359.0,1561.0,2615.0
15006,359.0,1561.0,2999.0
15007,359.0,943.0,2999.0
15008,359.0,943.0,2999.0
15009,359.0,943.0,2999.0
15010,359.0,943.0,2999.0
15011,359.0,943.0,2999.0
15012,359.0,943.0,2999.0
15013,359.0,2385.0,2999.0
15014,359.0,2385.0,2999.0
15015,359.0,2385.0,2999.0
15016,359.0,2385.0,2999.0
15017,359.0,2385.0,2999.0
15018,359.0,2385.0,2999.0
15019,359.0,2385.0,2999.0
15020,395.0,2385.0,2999.0
15021,395.0,2385.0,2999.0
15022,395.0,2385.0,2999.0
15023,395.0,2385.0,2999.0
15024,395.0,2808.0,2999.0
15025,395.0,2808.0,2999.0
15026,395.0,2808.0,1307.0
15027,395.0,2808.0,1307.0
15028,395.0,2808.0,1307.0
15029,395.0,2808.0,1307.0
15030,395.0,2808.0,2447.0
15031,395.0,2808.0,2447.0
15032,395.0,2808.0,2447.0
15033,395.0,1732.0,2447.0
15034,395.0,1732.0,2447.0
15035,395.0,2985.0,2447.0
15036,354.0,2985.0,2447.0
15037,354.0,893.0,2447.0
15038,354.0,893.0,2979.0
15039,354.0,893.0,2979.0
15040,354.0,893.0,2354.0
15041,354.0,893.0,2354.0
15042,354.0,893.0,2354.0
15043,354.0,893.0,2354.0
15044,354.0,893.0,2354.0
15045,354.0,893.0,2354.0
15046,373.0,893.0,2354.0
15047,373.0,893.0,2354.0
15048,256.0,893.0,2354.0
15049,256.0,893.0,2354.0
15050,256.0,893.0,2354.0
15051,284.0,2197.0,2354.0
15052,284.0,2197.0,2354.0
15053,284.0,1476.0,2354.0
15054,284.0,1476.0,2354.0
15055,284.0,1476.0,2354.0
15056,284.0,1476.0,3392.0
15057,284.0,1476.0,3392.0
15058,284.0,1476.0,3392.0
15059,284.0,1476.0,3392.0
15060,284.0,1476.0,3392.0
15061,284.0,1476.0,3392.0
15062,284.0,1476.0,1810.0
15063,284.0,1476.0,1810.0
15064,284.0,1476.0,2156.0
15065,284.0,1476.0,2156.0
15066,275.0,1476.0,2156.0
15067,275.0,1476.0,2156.0
15068,426.0,2418.0,2156.0
15069,426.0,2418.0,2156.0
15070,426.0,2418.0,2156.0
15071,426.0,2418.0,2156.0
15072,426.0,863.0,2156.0
15073,426.0,863.0,2156.0
15074,426.0,863.0,2156.0
15075,426.0,863.0,2432.0
15076,426.0,2029.0,2432.0
15077,426.0,1413.0,2432.0
15078,426.0,1413.0,2432.0
15079,426.0,1413.0,2432.0
15080,426.0,1413.0,2432.0
15081,426.0,2158.0,2432.0
15082,426.0,2158.0,2432.0
15083,426.0,2158.0,2432.0
15084,426.0,2158.0,2432.0
15085,233.0,2158.0,2432.0
15086,233.0,2158.0,2432.0
15087,385.0,2158.0,2432.0
15088,385.0,2158.0,2490.0
15089,385.0,2158.0,2490.0
15090,385.0,2158.0,2490.0
15091,385.0,3199.0,2490.0
15092,385.0,3199.0,2490.0
15093,385.0,3199.0,2490.0
15094,385.0,3199.0,2490.0
15095,593.0,3199.0,2490.0
15096,593.0,3199.0,2490.0
15097,593.0,3199.0,2490.0
15098,593.0,3199.0,2490.0
15099,593.0,3199.0,2490.0
15100,593.0,3199.0,2490.0
15101,593.0,3199.0,2490.0
15102,593.0,3199.0,2490.0
15103,593.0,3199.0,2490.0
15104,593.0,3199.0,2490.0
15105,593.0,3199.0,2490.0
15106,593.0,3199.0,2490.0
15107,593.0,3199.0,2490.0
15108,593.0,3199.0,1781.0
15109,168.0,3199.0,1781.0
15110,264.0,3199.0,2143.0
15111,264.0,3199.0,2143.0
15112,352.0,3199.0,2143.0
15113,194.0,3199.0,2143.0
15114,194.0,3199.0,2143.0
15115,194.0,3199.0,2143.0
15116,194.0,3199.0,2143.0
15117,183.0,3199.0,2143.0
15118,183.0,3199.0,2143.0
16715,1422.0,4935.0,2791.0
16716,717.0,4935.0,2791.0
16717,1819.0,4935.0,2791.0
16718,1819.0,4935.0,2791.0
16719,1819.0,4935.0,2791.0
16720,1819.0,4935.0,2791.0
16721,1819.0,4935.0,2791.0
16722,950.0,4935.0,2791.0
16723,950.0,4935.0,2791.0
16724,950.0,4935.0,2791.0
16725,950.0,4935.0,1792.0
16726,950.0,4935.0,1792.0
16727,950.0,4935.0,1792.0
16728,2207.0,4935.0,1792.0
16729,2207.0,4935.0,1792.0
16730,1328.0,4935.0,1792.0
16731,1328.0,4935.0,3209.0
16732,1328.0,4935.0,3209.0
16733,1328.0,4935.0,3209.0
16734,1328.0,3818.0,4749.0
16735,1328.0,3818.0,4749.0
16736,1662.0,3818.0,4749.0
16737,1662.0,5621.0,4749.0
16738,12.0,5621.0,4749.0
16739,1661662.0,5621.0,4749.0
16740,1662.0,5621.0,4749.0
16741,1662.0,5621.0,4749.0
16742,1662.0,5621.0,4749.0
16743,1662.0,5621.0,4749.0
16744,1662.0,5621.0,4749.0
16745,1662.0,1813.0,4749.0
16746,1662.0,1813.0,4749.0
16747,1662.0,1813.0,4749.0
16748,1662.0,1813.0,4749.0
16749,1662.0,1813.0,4749.0
16750,1662.0,1813.0,4749.0
16751,1662.0,1813.0,4749.0
16752,1662.0,1813.0,4749.0
16753,62.0,2386.0,4749.0
16754,1662.0,2386.0,4749.0
16755,1662.0,2386.0,4749.0
16756,1662.0,2386.0,4749.0
16757,1291.0,2386.0,4749.0
16758,1291.0,2386.0,4749.0
16759,1291.0,2386.0,4749.0
16760,1291.0,1417.0,4749.0
16761,1291.0,1417.0,4749.0
16762,1291.0,1417.0,4749.0
16763,1291.0,1417.0,4749.0
16764,777.0,1417.0,4749.0
16765,796.0,1417.0,4749.0
16766,799.0,1325.0,4749.0
16767,799.0,1325.0,4749.0
16768,799.0,1325.0,4749.0
16769,799.0,1325.0,4749.0
16770,799.0,1325.0,4749.0
16771,799.0,2857.0,4749.0
16772,2460.0,2857.0,4749.0
16773,1838.0,2851.0,4749.0
16774,1596.0,2851.0,4749.0
16775,1596.0,1843.0,4749.0
16776,1596.0,1843.0,4749.0
16777,1596096.0,2775.0,4749.0
16778,151596.0,2775.0,4749.0
16779,1596.0,2775.0,4749.0
16780,1408.0,2775.0,4749.0
16781,1408.0,2775.0,4749.0
16782,1144.0,2775.0,4749.0
16783,514.0,1986.0,4749.0
16784,600.0,1986.0,4749.0
16785,600.0,1986.0,4749.0
16786,600.0,2202.0,4749.0
16787,600.0,2202.0,4749.0
16788,600.0,2202.0,4749.0
16789,600.0,2202.0,4749.0
16790,600.0,2202.0,4749.0
16791,600.0,2202.0,4749.0
16792,600.0,2202.0,4749.0
16793,600.0,2202.0,4749.0
16794,600.0,2202.0,4749.0
16795,1424.0,2202.0,4749.0
16796,1060.0,2202.0,4749.0
16797,1060.0,2202.0,4749.0
16798,1060.0,2202.0,4749.0
16799,1060.0,2202.0,4749.0
16800,1235.0,2202.0,4749.0
16801,1246.0,2202.0,4749.0
16802,1246.0,2202.0,4749.0
16803,571.0,2202.0,4749.0
16804,571.0,2202.0,4749.0
16805,571.0,2202.0,4749.0
16806,571.0,2202.0,4749.0
16807,571.0,2202.0,4749.0
16808,571.0,2202.0,4749.0
16809,571.0,2202.0,4749.0
16810,571.0,2202.0,4749.0
16811,791.0,2202.0,4749.0
16812,791.0,2202.0,4749.0
16813,791.0,2202.0,4749.0
16814,791.0,2202.0,4749.0
16815,791.0,4005.0,4749.0
16816,878.0,4005.0,4749.0
16817,878.0,4005.0,4749.0
16818,878.0,4005.0,4749.0
16819,1350.0,4005.0,4749.0
16820,1567.0,4005.0,4749.0
16821,1634.0,4005.0,4749.0
16822,1634.0,4005.0,4749.0
16823,1634.0,4005.0,4749.0
16824,1634.0,4005.0,4749.0
16825,1634.0,4005.0,4749.0
16826,1634.0,4005.0,4749.0
16827,1634.0,4005.0,4749.0
16828,1634.0,4005.0,4749.0
16829,1634.0,4005.0,4749.0
16830,1634.0,4005.0,4749.0
16831,1854.0,4005.0,4749.0
17405,3147.0,5147.0,359.0
17406,2163.0,553.0,557.0
17407,1.0,6.0,557.0
17408,1990.0,80990.0,1116.0
17409,3061.0,662.0,4038.0
17410,3061.0,662.0,4038.0
17411,3061.0,662.0,4038.0
17412,3061.0,662.0,4038.0
17413,3061.0,662.0,4038.0
17414,3061.0,662.0,4038.0
17415,3061.0,662.0,4038.0
17416,2472.0,662.0,4038.0
17417,2472.0,662.0,4038.0
17418,2472.0,662.0,4038.0
17419,2472.0,662.0,4038.0
17420,2472.0,662.0,4038.0
17421,2472.0,662.0,4038.0
17422,172.0,662.0,4038.0
17423,24472.0,662.0,4038.0
17424,2472.0,662.0,4038.0
17425,2472.0,662.0,4038.0
17426,2472.0,662.0,4038.0
17427,2472.0,662.0,4038.0
17428,2472.0,662.0,4038.0
18246,1376.0,26101376.0,2610.0
18247,21684.0,2610684.0,2610.0
18248,2032.0,26032.0,2610.0
18249,2032.0,2.0,2610.0
18250,915.0,2610.0,680.0
18251,915.0,2610.0,680.0
18252,915.0,2610.0,680.0
18253,915.0,2610.0,680.0
18254,733.0,2610.0,680.0
18255,733.0,2610.0,680.0
18256,733.0,2610.0,680.0
18257,733.0,2610.0,680.0
18258,733.0,2610.0,680.0
18259,733.0,2610.0,680.0
18260,733.0,2610.0,680.0
18261,2022.0,2610.0,680.0
18262,2022.0,2610.0,680.0
18263,90.0,2610.0,680.0
18264,1419.0,2610.0,680.0
18265,1419.0,2610.0,680.0
18266,1419.0,2610.0,680.0
18267,1419.0,2610.0,680.0
18268,1419.0,2610.0,680.0
18269,1419.0,2610.0,680.0
18270,1419.0,2610.0,680.0
18271,1419.0,2610.0,680.0
18272,1419.0,2610.0,680.0
18273,1419.0,2610.0,680.0
18274,1419.0,2610.0,680.0
18275,1419.0,2610.0,680.0
18276,1419.0,2610.0,680.0
18277,1775.0,2610.0,680.0
18278,1775.0,2610.0,680.0
18279,1554.0,2610.0,680.0
18280,1554.0,92.0,680.0
19074,1784.0,371784.0,3799.0
19075,704.0,3794.0,3799.0
19076,1122.0,258122.0,2585.0
19077,1331.0,2585.0,2162.0
19078,1331.0,2585.0,2162.0
19079,1297.0,2585.0,2162.0
19080,1297.0,2996.0,2162.0
19081,1297.0,2996.0,2162.0
19082,1297.0,2996.0,2162.0
19083,1297.0,2996.0,2162.0
19084,1297.0,2996.0,2162.0
19085,1297.0,2996.0,3658.0
19086,1297.0,2996.0,3658.0
19087,1297.0,2996.0,3658.0
19088,1297.0,2996.0,3658.0
19089,1297.0,2996.0,3658.0
19090,12297.0,2996.0,3658.0
19091,1297.0,2996.0,3658.0
19092,1297.0,2996.0,3658.0
19093,97.0,2996.0,3658.0
19094,1297.0,2996.0,3658.0
19095,1297.0,2996.0,3658.0
19096,676.0,2996.0,3658.0
19097,676.0,2996.0,3658.0
19098,1202.0,2996.0,3658.0
19099,1202.0,2996.0,3658.0
19100,1202.0,2996.0,3658.0
19101,1202.0,2996.0,3658.0
19102,1202.0,2996.0,3658.0
19103,1202.0,2996.0,3658.0
19104,1202.0,2996.0,3658.0
19105,1860.0,2996.0,3658.0
19106,1860.0,2996.0,3658.0
19107,1860.0,2996.0,3658.0
19108,2058.0,2996.0,3658.0
19109,1521.0,2996.0,3658.0
19110,1521.0,2996.0,3658.0
19111,1521.0,2996.0,3658.0
20236,1294.0,2174.0,1039.0
20237,1294.0,2174.0,1039.0
20238,1294.0,878.0,1039.0
20239,1294.0,878.0,1039.0
20240,1294.0,878.0,1039.0
20241,1294.0,878.0,1039.0
20242,1294.0,551.0,2739.0
20243,1294.0,551.0,1161.0
20244,1294.0,551.0,1161.0
20245,1294.0,551.0,1161.0
20246,1294.0,551.0,1161.0
20247,1294.0,3041.0,1161.0
20248,1294.0,3041.0,1161.0
20249,1294.0,3041.0,2314.0
20250,1294.0,3041.0,2314.0
20251,1294.0,3041.0,2314.0
20252,1294.0,3041.0,2314.0
20253,1294.0,3041.0,2314.0
20254,1294.0,3041.0,2314.0
20255,1294.0,3041.0,2314.0
20256,1294.0,3041.0,2314.0
20257,1294.0,3041.0,2314.0
20258,1294.0,3041.0,2314.0
20259,1294.0,3041.0,2314.0
20260,1294.0,3041.0,2314.0
20261,1294.0,2874.0,2314.0
20262,1294.0,2874.0,3301.0
20263,1294.0,2874.0,3301.0
20264,1294.0,2874.0,3301.0
20265,1294.0,2874.0,3301.0
20266,1031.0,2874.0,3301.0
20267,670.0,2874.0,3301.0
20268,1273.0,2874.0,3301.0
20269,1273.0,2874.0,3301.0
20270,1273.0,2874.0,3301.0
20271,1273.0,2874.0,3301.0
20272,1273.0,2874.0,3301.0
20273,1891.0,2874.0,3301.0
20274,1891.0,1743.0,3301.0
20275,1891.0,1743.0,3301.0
20276,1891.0,2005.0,3301.0
20277,1891.0,2005.0,3301.0
20278,1891.0,2005.0,3301.0
20279,1891.0,2005.0,3301.0
20280,1891.0,2005.0,3301.0
20281,1891.0,2005.0,3301.0
20282,1891.0,2005.0,3301.0
20283,1891.0,2005.0,3301.0
20284,1891.0,2005.0,3301.0
20285,1891.0,2005.0,3301.0
20286,1891.0,2005.0,3301.0
20287,2380.0,2005.0,3301.0
20288,2380.0,2005.0,3301.0
20289,1387.0,2005.0,3301.0
20290,1387.0,2005.0,3301.0
20291,1387.0,2005.0,3301.0
20292,1387.0,2005.0,3301.0
20293,1387.0,2005.0,3301.0
20294,1387.0,2005.0,3301.0
20295,1387.0,2005.0,3301.0
20296,1387.0,1851.0,3301.0
20297,1387.0,1851.0,3301.0
20298,1387.0,1851.0,3301.0
20299,1387.0,1851.0,3301.0
20300,896.0,1851.0,3301.0
20301,896.0,1851.0,3301.0
20302,896.0,1851.0,3301.0
20303,896.0,1851.0,3301.0
20304,896.0,1851.0,3301.0
20305,1271.0,1851.0,3301.0
20306,1271.0,1851.0,3301.0
20307,1800.0,1851.0,3301.0
20308,1271.0,1851.0,3301.0
20309,1271.0,1851.0,3301.0
20310,1765.0,1851.0,3301.0
20311,1765.0,1851.0,3301.0
20312,1765.0,1851.0,3301.0
20313,1765.0,1851.0,3301.0
20314,1765.0,1851.0,3301.0
20315,1765.0,1851.0,3301.0
20316,1319.0,1851.0,3301.0
20317,1319.0,1851.0,3301.0
20318,1945.0,1851.0,3301.0
20319,1945.0,1851.0,3301.0
20320,1945.0,1851.0,3301.0
20321,904.0,1851.0,3301.0
20322,904.0,1851.0,3301.0
20323,904.0,1851.0,3301.0
20324,904.0,1851.0,3301.0
20325,904.0,1851.0,3301.0
20326,904.0,1851.0,3301.0
20327,904.0,1851.0,3301.0
20328,904.0,1851.0,3301.0
20329,904.0,1851.0,3301.0
20330,904.0,1851.0,3301.0
20331,904.0,1851.0,3301.0
20332,904.0,1851.0,3301.0
20333,904.0,1851.0,3301.0
20334,904.0,1851.0,3301.0
20335,904.0,1851.0,3301.0
20336,904.0,1851.0,3301.0
20337,904.0,1851.0,3301.0
20338,904.0,1851.0,3301.0
20339,904.0,1851.0,3301.0
20340,904.0,1851.0,3301.0
20341,904.0,1851.0,3301.0
20342,124.0,1851.0,3301.0
20343,9004.0,1851.0,3301.0
20344,904.0,1851.0,3301.0
20345,904.0,1851.0,3301.0
20346,904.0,1851.0,3301.0
20347,904.0,1851.0,3301.0
20348,1228.0,1851.0,3301.0
20349,1228.0,1851.0,3301.0
20350,1228.0,1851.0,3301.0
20351,1228.0,1851.0,3301.0
20352,1228.0,1851.0,3301.0
20353,1228.0,1851.0,3301.0
20354,1238.0,1851.0,3301.0
20355,1238.0,1851.0,3301.0
20356,1238.0,1851.0,3301.0
20357,1238.0,1851.0,3301.0
20358,1419.0,1851.0,3301.0
20359,1836.0,1851.0,3301.0
20360,1836.0,1851.0,3301.0
20361,1836.0,1851.0,3301.0
20362,1836.0,1851.0,3301.0
20363,1202.0,1851.0,3301.0
20364,1202.0,1851.0,3301.0
20365,2783.0,1851.0,3301.0
20366,2783.0,1851.0,3301.0
20367,2783.0,1851.0,3301.0
20368,2783.0,1851.0,3301.0
20369,2783.0,1851.0,3301.0
20370,2783.0,1851.0,3301.0
20371,2783.0,1681.0,3301.0
20372,2783.0,1681.0,3301.0
20373,804.0,1681.0,3301.0
20374,804.0,1681.0,3301.0
21986,1573.0,1729.0,672.0
21987,1573.0,1729.0,672.0
21988,1573.0,1729.0,672.0
21989,1573.0,1729.0,672.0
21990,1387.0,1921.0,672.0
21991,1387.0,1921.0,672.0
21992,893.0,1921.0,672.0
21993,893.0,1921.0,672.0
21994,893.0,1921.0,672.0
21995,893.0,1921.0,672.0
21996,893.0,1915.0,672.0
21997,893.0,1915.0,672.0
21998,1440.0,1915.0,672.0
21999,1440.0,1915.0,672.0
22000,1440.0,1915.0,672.0
22001,1440.0,1915.0,672.0
22002,1440.0,1915.0,596.0
22003,1440.0,1915.0,596.0
22004,937.0,1915.0,596.0
22005,937.0,1915.0,596.0
22006,937.0,1915.0,596.0
22007,937.0,1915.0,596.0
22008,937.0,1915.0,596.0
22009,1480.0,1915.0,596.0
22010,891480.0,1915.0,596.0
22011,2002.0,1915.0,596.0
22012,2002.0,1915.0,596.0
22013,2002.0,1915.0,596.0
22014,2002.0,1915.0,596.0
22015,2002.0,1915.0,596.0
22016,2002.0,1915.0,596.0
22017,2002.0,1915.0,521.0
22018,2002.0,1915.0,521.0
22019,22002.0,1915.0,521.0
22020,2002.0,1915.0,521.0
22021,2002.0,1915.0,521.0
22022,2002.0,1915.0,521.0
22023,2002.0,1915.0,521.0
22024,2002.0,1915.0,521.0
22025,2002.0,1915.0,521.0
22026,1371.0,1915.0,521.0
22027,1371.0,1915.0,521.0
22028,1371.0,1915.0,521.0
22029,1371.0,1915.0,521.0
22030,1371.0,1956.0,521.0
22031,948.0,1956.0,876.0
22032,948.0,1956.0,876.0
22033,856.0,1956.0,876.0
22034,856.0,1956.0,876.0
22035,856.0,1956.0,876.0
22036,856.0,1956.0,876.0
22037,856.0,1956.0,515.0
22038,856.0,1956.0,515.0
22039,2078.0,1956.0,515.0
22040,2078.0,1956.0,515.0
22041,78.0,1956.0,515.0
22042,2936.0,1956.0,515.0
22043,936.0,1956.0,515.0
22044,936.0,1956.0,515.0
22045,936.0,1956.0,515.0
22046,936.0,1956.0,515.0
22047,936.0,1956.0,515.0
22048,936.0,2778.0,515.0
22049,936.0,2778.0,515.0
22050,936.0,965.0,515.0
22051,936.0,965.0,515.0
22052,936.0,965.0,260.0
22053,936.0,965.0,260.0
22054,936.0,965.0,257.0
22055,936.0,965.0,257.0
22056,936.0,965.0,854.0
22057,936.0,965.0,854.0
22058,1255.0,965.0,854.0
22059,1255.0,965.0,239.0
22060,1255.0,965.0,471.0
22061,15.0,965.0,287.0
22062,125255.0,965.0,287.0
22063,11255.0,965.0,287.0
22064,1255.0,965.0,287.0
22065,1255.0,965.0,287.0
22066,1162.0,965.0,287.0
22067,1162.0,965.0,287.0
22068,1162.0,965.0,287.0
22069,1162.0,965.0,287.0
22070,1162.0,965.0,287.0
22071,1079.0,965.0,287.0
22072,79.0,965.0,304.0
22073,858.0,965.0,304.0
22074,476.0,965.0,304.0
22075,476.0,1324.0,304.0
22076,476.0,1324.0,304.0
22077,1350.0,1324.0,304.0
22078,1350.0,1324.0,304.0
22079,1350.0,1324.0,304.0
22080,1350.0,1324.0,675.0
22081,10.0,1901.0,675.0
22082,1350.0,1901.0,675.0
22083,1350.0,1901.0,803.0
22084,1350.0,1901.0,803.0
22085,1350.0,1234.0,803.0
22086,1350.0,1234.0,803.0
22087,1350.0,2937.0,803.0
22088,1350.0,2937.0,803.0
22089,1350.0,2937.0,803.0
22090,1350.0,2039.0,803.0
22091,1350.0,2039.0,803.0
22092,1350.0,2039.0,803.0
22093,1350.0,2039.0,803.0
22094,2003.0,1611.0,803.0
22095,2003.0,1406.0,803.0
22096,2003.0,2174.0,803.0
22097,2003.0,2174.0,803.0
22098,867.0,2174.0,803.0
22099,867.0,2174.0,803.0
22100,867.0,2174.0,803.0
22101,867.0,2174.0,803.0
22102,867.0,1574.0,803.0
22103,867.0,1574.0,803.0
22104,896.0,1574.0,803.0
22105,896.0,1574.0,803.0
22106,896.0,1574.0,803.0
22107,896.0,1574.0,803.0
22108,896.0,1574.0,803.0
22109,896.0,1574.0,803.0
22110,896.0,1574.0,803.0
22111,896.0,1574.0,803.0
22112,896.0,1574.0,803.0
22113,896.0,1574.0,560.0
22114,1021.0,2324.0,560.0
22115,1021.0,2324.0,560.0
22116,1021.0,2324.0,560.0
22117,1021.0,2324.0,560.0
22118,1021.0,2324.0,560.0
22119,1021.0,2324.0,560.0
22120,1021.0,1810.0,560.0
22121,1021.0,1810.0,560.0
22122,1021.0,1810.0,560.0
22123,1021.0,1810.0,560.0
23880,250.0,95.0,379.0
23881,250.0,95.0,379.0
23882,250.0,29.0,274.0
23883,250.0,29.0,274.0
23884,75.0,29.0,198.0
23885,75.0,29.0,198.0
23886,107.0,31.0,198.0
23887,107.0,26.0,198.0
23888,107.0,26.0,198.0
23889,276.0,26.0,198.0
23890,234.0,26.0,198.0
23891,234.0,26.0,198.0
23892,303.0,64.0,198.0
23893,134.0,64.0,198.0
23894,134.0,64.0,198.0
23895,190.0,64.0,198.0
23896,190.0,64.0,198.0
23897,248.0,64.0,198.0
23898,248.0,64.0,269.0
23899,248.0,64.0,269.0
23900,332.0,64.0,269.0
23901,332.0,64.0,269.0
23902,332.0,64.0,269.0
23903,332.0,64.0,269.0
23904,332.0,64.0,166.0
23905,332.0,36.0,166.0
23906,332.0,59.0,166.0
23907,332.0,59.0,166.0
23908,332.0,59.0,166.0
23909,332.0,59.0,166.0
23910,332.0,47.0,166.0
23911,332.0,64.0,166.0
23912,85.0,75.0,166.0
23913,85.0,113.0,166.0
23914,85.0,113.0,166.0
23915,273.0,113.0,166.0
23916,273.0,113.0,166.0
23917,273.0,62.0,166.0
23918,120.0,62.0,166.0
23919,230.0,62.0,166.0
23920,230.0,62.0,166.0
23921,89.0,62.0,166.0
23922,89.0,62.0,166.0
23923,89.0,62.0,269.0
23924,89.0,62.0,269.0
23925,89.0,62.0,269.0
23926,89.0,62.0,269.0
23927,89.0,62.0,269.0
23928,89.0,62.0,269.0
23929,89.0,89.0,269.0
23930,89.0,105.0,270.0
23931,89.0,105.0,270.0
23932,89.0,41.0,270.0
23933,89.0,41.0,270.0
23934,89.0,41.0,270.0
23935,89.0,96.0,270.0
23936,89.0,44.0,270.0
23937,89.0,44.0,318.0
23938,89.0,44.0,318.0
23939,89.0,58.0,195.0
23940,89.0,58.0,195.0
23941,89.0,82.0,195.0
23942,89.0,82.0,384.0
23943,89.0,82.0,384.0
23944,89.0,82.0,384.0
23945,89.0,82.0,384.0
23946,263.0,82.0,384.0
23947,263.0,82.0,231.0
23948,263.0,82.0,231.0
23949,263.0,58.0,231.0
23950,263.0,38.0,231.0
23951,263.0,81.0,231.0
23952,263.0,81.0,276.0
23953,263.0,81.0,276.0
23954,263.0,81.0,276.0
23955,263.0,81.0,212.0
23956,263.0,81.0,212.0
23957,263.0,81.0,212.0
23958,263.0,81.0,212.0
23959,376.0,81.0,212.0
23960,376.0,81.0,212.0
23961,84.0,16.0,212.0
23962,84.0,23.0,212.0
23963,192.0,23.0,212.0
23964,192.0,23.0,122.0
23965,192.0,23.0,157.0
23966,192.0,23.0,157.0
23967,192.0,23.0,157.0
23968,192.0,23.0,157.0
23969,192.0,23.0,175.0
23970,192.0,23.0,203.0
23971,192.0,23.0,203.0
23972,137.0,23.0,203.0
23973,137.0,23.0,328.0
23974,137.0,23.0,328.0
23975,326.0,23.0,328.0
23976,219.0,23.0,328.0
23977,219.0,23.0,328.0
23978,219.0,23.0,328.0
23979,219.0,23.0,328.0
23980,219.0,105.0,328.0
23981,219.0,105.0,328.0
23982,219.0,63.0,328.0
23983,219.0,63.0,328.0
23984,289.0,61.0,328.0
23985,289.0,61.0,328.0
23986,289.0,61.0,328.0
23987,289.0,61.0,328.0
23988,289.0,61.0,358.0
23989,289.0,61.0,358.0
23990,289.0,106.0,358.0
23991,289.0,106.0,358.0
23992,289.0,109.0,358.0
23993,289.0,109.0,358.0
23994,289.0,85.0,358.0
23995,289.0,85.0,358.0
23996,289.0,85.0,358.0
23997,289.0,85.0,358.0
23998,262.0,85.0,358.0
23999,220.0,85.0,410.0
24000,220.0,85.0,410.0
24001,234.0,85.0,410.0
24002,115.0,85.0,410.0
24003,214.0,85.0,410.0
24004,214.0,85.0,381.0
24005,214.0,85.0,393.0
24006,214.0,85.0,393.0
24007,214.0,35.0,393.0
24008,214.0,35.0,316.0
24009,214.0,35.0,275.0
24010,85.0,35.0,183.0
24011,85.0,76.0,183.0
24012,85.0,76.0,183.0
24013,85.0,42.0,183.0
24014,85.0,66.0,183.0
24015,85.0,18.0,183.0
24016,85.0,18.0,183.0
24017,85.0,18.0,183.0
24018,85.0,57.0,183.0
24019,204.0,38.0,183.0
24020,204.0,105.0,231.0
24021,204.0,105.0,231.0
24022,250.0,105.0,231.0
24023,250.0,105.0,204.0
24024,250.0,105.0,204.0
24025,373.0,105.0,320.0
24026,373.0,105.0,332.0
24027,373.0,105.0,331.0
24028,373.0,105.0,146.0
24029,373.0,80.0,379.0
24030,373.0,80.0,274.0
24031,373.0,84.0,425.0
24032,373.0,84.0,425.0
25860,65.0,68.0,285.0
25861,65.0,68.0,285.0
25862,65.0,73.0,285.0
25863,65.0,73.0,285.0
25864,65.0,55.0,285.0
25865,65.0,55.0,285.0
25866,65.0,35.0,337.0
25867,65.0,75.0,337.0
25868,65.0,75.0,337.0
25869,65.0,75.0,337.0
25870,65.0,75.0,337.0
25871,65.0,75.0,113.0
25872,65.0,75.0,113.0
25873,65.0,75.0,113.0
25874,65.0,75.0,326.0
25875,65.0,75.0,353.0
25876,65.0,75.0,353.0
25877,65.0,75.0,292.0
25878,65.0,75.0,263.0
25879,65.0,75.0,301.0
25880,65.0,75.0,301.0
25881,354.0,27.0,301.0
25882,214.0,27.0,301.0
25883,215.0,27.0,301.0
25884,100.0,27.0,301.0
25885,323.0,27.0,304.0
25886,323.0,27.0,142.0
25887,323.0,27.0,139.0
25888,323.0,27.0,139.0
25889,323.0,27.0,198.0
25890,323.0,27.0,198.0
25891,279.0,49.0,198.0
25892,223.0,49.0,198.0
25893,223.0,49.0,198.0
25894,202.0,49.0,198.0
25895,202.0,49.0,198.0
25896,202.0,49.0,208.0
25897,202.0,49.0,250.0
25898,202.0,49.0,254.0
25899,202.0,49.0,154.0
25900,202.0,44.0,154.0
25901,202.0,44.0,154.0
25902,202.0,44.0,231.0
25903,202.0,44.0,358.0
25904,202.0,44.0,358.0
25905,202.0,44.0,358.0
25906,202.0,44.0,358.0
25907,314.0,44.0,358.0
25908,314.0,44.0,358.0
25909,314.0,44.0,358.0
25910,314.0,44.0,358.0
25911,314.0,75.0,358.0
25912,314.0,75.0,358.0
25913,314.0,70.0,436.0
25914,318.0,70.0,436.0
25915,318.0,70.0,436.0
25916,318.0,52.0,436.0
25917,318.0,52.0,436.0
25918,318.0,52.0,258.0
25919,318.0,52.0,258.0
25920,222.0,52.0,258.0
25921,222.0,52.0,177.0
25922,222.0,52.0,129.0
25923,222.0,74.0,129.0
25924,222.0,67.0,129.0
25925,222.0,67.0,35.0
25926,222.0,67.0,35.0
25927,222.0,67.0,35.0
25928,222.0,64.0,35.0
25929,222.0,64.0,35.0
25930,222.0,64.0,35.0
25931,222.0,64.0,35.0
25932,114.0,64.0,105.0
25933,258.0,64.0,105.0
25934,258.0,64.0,291.0
25935,289.0,64.0,172.0
25936,289.0,29.0,172.0
25937,289.0,29.0,172.0
25938,289.0,57.0,172.0
25939,289.0,57.0,172.0
25940,289.0,57.0,172.0
25941,289.0,57.0,172.0
25942,405.0,57.0,172.0
25943,405.0,158.0,172.0
25944,405.0,89.0,172.0
25945,405.0,138.0,172.0
25946,405.0,73.0,172.0
25947,405.0,73.0,172.0
25948,405.0,73.0,172.0
25949,405.0,73.0,172.0
25950,405.0,73.0,172.0
25951,400.0,173.0,172.0
25952,400.0,173.0,172.0
25953,400.0,173.0,172.0
25954,400.0,173.0,93.0
25955,400.0,173.0,93.0
25956,400.0,173.0,93.0
25957,400.0,173.0,93.0
25958,400.0,173.0,93.0
25959,400.0,105.0,93.0
25960,400.0,105.0,93.0
25961,400.0,105.0,93.0
25962,400.0,105.0,93.0
25963,400.0,105.0,93.0
25964,400.0,105.0,93.0
25965,400.0,108.0,93.0
25966,400.0,108.0,93.0
25967,400.0,108.0,93.0
25968,400.0,108.0,93.0
25969,400.0,108.0,266.0
25970,400.0,108.0,266.0
25971,400.0,108.0,266.0
25972,266.0,108.0,266.0
25973,433.0,67.0,266.0
25974,433.0,67.0,230.0
25975,433.0,67.0,230.0
25976,433.0,67.0,230.0
25977,433.0,67.0,230.0
25978,433.0,83.0,230.0
25979,433.0,83.0,230.0
25980,433.0,109.0,230.0
25981,433.0,109.0,230.0
25982,433.0,109.0,478.0
25983,433.0,109.0,346.0
25984,433.0,118.0,346.0
25985,433.0,50.0,346.0
25986,433.0,81.0,346.0
25987,433.0,50.0,346.0
25988,433.0,105.0,346.0
25989,433.0,80.0,346.0
25990,433.0,121.0,346.0
25991,433.0,52.0,346.0
25992,433.0,86.0,346.0
25993,433.0,34.0,346.0
25994,433.0,34.0,346.0
25995,433.0,72.0,346.0
25996,433.0,72.0,346.0
25997,433.0,72.0,346.0
25998,433.0,72.0,346.0
25999,433.0,55.0,346.0
26000,433.0,55.0,240.0
26001,244.0,55.0,240.0
26002,244.0,97.0,240.0
26003,244.0,40.0,240.0
26004,244.0,40.0,240.0
26005,244.0,40.0,240.0
26006,244.0,40.0,240.0
26007,180.0,40.0,240.0
26008,180.0,40.0,179.0
26009,180.0,40.0,157.0
26010,180.0,116.0,157.0
26011,180.0,47.0,157.0
26012,180.0,47.0,157.0
27761,1346.0,783.0,1275.0
27762,1346.0,783.0,1275.0
27763,1346.0,1152.0,1275.0
27764,1346.0,1152.0,1275.0
27765,1346.0,1152.0,1275.0
27766,1346.0,1152.0,1724.0
27767,1346.0,1152.0,1724.0
27768,1346.0,1152.0,1724.0
27769,1346.0,1152.0,1724.0
27770,1346.0,1152.0,1909.0
27771,1346.0,1152.0,1909.0
27772,1346.0,1152.0,1909.0
27773,1346.0,1152.0,1909.0
27774,1346.0,1152.0,1909.0
27775,1346.0,1152.0,3096.0
27776,686.0,1152.0,3096.0
27777,686.0,1152.0,3096.0
27778,686.0,1152.0,3096.0
27779,686.0,1152.0,3096.0
27780,686.0,1152.0,3096.0
27781,686.0,1152.0,1088.0
27782,686.0,1152.0,1640.0
27783,686.0,1152.0,1368.0
27784,686.0,1152.0,1368.0
27785,686.0,1152.0,1368.0
27786,686.0,1152.0,1368.0
27787,686.0,1152.0,1368.0
27788,686.0,1152.0,2730.0
27789,686.0,1152.0,2730.0
27790,686.0,1152.0,2730.0
27791,686.0,1152.0,827.0
27792,686.0,1152.0,827.0
27793,686.0,1152.0,827.0
27794,686.0,1152.0,2212.0
27795,686.0,1152.0,2212.0
27796,686.0,1152.0,2212.0
27797,686.0,1152.0,2212.0
27798,686.0,1152.0,2212.0
27799,686.0,1152.0,2212.0
27800,686.0,1152.0,1589.0
27801,686.0,1152.0,1589.0
27802,686.0,1152.0,1589.0
27803,686.0,1152.0,1589.0
27804,686.0,1152.0,1589.0
27805,686.0,1152.0,1589.0
27806,2058.0,1152.0,1589.0
27807,2058.0,1152.0,1589.0
27808,2058.0,1152.0,1589.0
27809,2058.0,1152.0,1589.0
27810,2058.0,1152.0,1589.0
27811,2058.0,1152.0,1589.0
27812,2058.0,1152.0,2912.0
27813,2058.0,1152.0,2912.0
27814,2058.0,1152.0,2912.0
27815,2058.0,1152.0,2912.0
27816,2058.0,1152.0,2912.0
27817,2058.0,1152.0,2912.0
27818,2058.0,1152.0,2912.0
27819,2058.0,1152.0,2912.0
27820,2058.0,1152.0,2912.0
27821,2058.0,1152.0,2912.0
27822,1263.0,1152.0,2912.0
27823,1263.0,1152.0,2912.0
27824,1263.0,1152.0,2912.0
27825,1263.0,1152.0,2912.0
27826,1263.0,1152.0,2912.0
27827,1263.0,1152.0,2912.0
27828,1263.0,1152.0,2912.0
27829,2317.0,1152.0,2912.0
27830,2317.0,1152.0,2912.0
27831,2317.0,1152.0,1861.0
27832,2317.0,1152.0,1861.0
27833,2317.0,1152.0,1861.0
27834,2317.0,1152.0,1861.0
27835,2317.0,1152.0,2690.0
27836,2317.0,1152.0,2690.0
27837,2317.0,1152.0,2690.0
27838,2317.0,1152.0,2690.0
27839,2317.0,1152.0,2690.0
27840,2317.0,1152.0,2690.0
27841,2317.0,1152.0,2253.0
27842,2317.0,1152.0,2253.0
27843,641.0,1152.0,2253.0
27844,641.0,1152.0,2253.0
27845,641.0,1152.0,2253.0
27846,641.0,1152.0,2253.0
27847,641.0,1152.0,2253.0
27848,641.0,1152.0,2253.0
27849,641.0,974.0,2458.0
27850,641.0,974.0,1274.0
27851,641.0,974.0,1274.0
27852,641.0,974.0,1274.0
27853,641.0,974.0,1274.0
27854,641.0,974.0,1274.0
27855,641.0,974.0,1232.0
27856,641.0,974.0,412.0
27857,641.0,974.0,1958.0
27858,641.0,974.0,1958.0
27859,641.0,974.0,1958.0
27860,641.0,974.0,1958.0
27861,956.0,974.0,1958.0
27862,956.0,974.0,1958.0
27863,956.0,974.0,1958.0
27864,1519.0,974.0,1958.0
27865,1519.0,974.0,1958.0
27866,1519.0,974.0,1958.0
27867,1519.0,974.0,1958.0
27868,1519.0,974.0,1958.0
27869,1519.0,974.0,1896.0
27870,1519.0,974.0,1896.0
27871,1519.0,974.0,1896.0
27872,1519.0,1454.0,1896.0
27873,1519.0,1454.0,1896.0
27874,1519.0,1454.0,2090.0
27875,1519.0,1454.0,2090.0
27876,1519.0,1454.0,2113.0
27877,1519.0,1454.0,2113.0
27878,1519.0,1454.0,1622.0
27879,1519.0,1454.0,2306.0
27880,626.0,1454.0,1877.0
27881,626.0,1454.0,1877.0
27882,626.0,1454.0,1877.0
27883,626.0,1454.0,1877.0
27884,626.0,1454.0,1877.0
27885,626.0,1454.0,1877.0
27886,626.0,1454.0,1877.0
27887,626.0,1454.0,1877.0
27888,626.0,1454.0,1877.0
27889,626.0,1454.0,1877.0
27890,626.0,1454.0,1877.0
27891,626.0,1454.0,1877.0
27892,626.0,1454.0,1877.0
27893,626.0,1454.0,1877.0
27894,626.0,1454.0,1877.0
28708,1278.0,1832.0,1107.0
28709,1278.0,1832.0,1107.0
28710,1278.0,1832.0,1107.0
28711,1278.0,1832.0,1107.0
28712,1278.0,1832.0,1107.0
28713,1278.0,1832.0,1107.0
28714,1278.0,1832.0,1107.0
28715,1278.0,1832.0,1107.0
28716,1278.0,1832.0,1107.0
28717,1278.0,1832.0,1107.0
28718,1278.0,1832.0,1107.0
28719,1278.0,1832.0,1107.0
28720,1278.0,1832.0,1107.0
28721,1278.0,1832.0,1107.0
28722,1278.0,1832.0,1107.0
28723,1278.0,1832.0,1107.0
28724,1278.0,1832.0,1107.0
28725,1278.0,1832.0,1107.0
28726,1278.0,1832.0,1107.0
28727,1278.0,1832.0,1107.0
28728,1278.0,1832.0,1107.0
28729,1278.0,1832.0,1107.0
28730,1278.0,1832.0,1107.0
28731,1278.0,1832.0,1107.0
28732,1278.0,1832.0,1107.0
28733,2033.0,1832.0,1107.0
28734,2033.0,1832.0,1107.0
28735,2033.0,1832.0,1107.0
28736,2033.0,1832.0,1107.0
28737,2033.0,1832.0,1107.0
28738,2033.0,1832.0,1107.0
28739,1935.0,1832.0,1107.0
28740,1935.0,1403.0,1107.0
28741,1935.0,1403.0,1107.0
28742,1935.0,1403.0,1107.0
28743,1935.0,1403.0,1107.0
28744,1935.0,1403.0,1107.0
28745,699.0,1403.0,1107.0
28746,699.0,1403.0,1107.0
28747,699.0,1403.0,1107.0
28748,699.0,1403.0,1107.0
28749,699.0,1403.0,1107.0
28750,699.0,1403.0,1107.0
28751,699.0,1403.0,1107.0
28752,699.0,1403.0,1107.0
28753,699.0,1403.0,1107.0
28754,699.0,1403.0,1107.0
28755,699.0,1403.0,1107.0
28756,699.0,1403.0,1107.0
28757,699.0,1403.0,1107.0
28758,699.0,1403.0,1107.0
28759,699.0,1403.0,1107.0
28760,699.0,1403.0,1107.0
28761,980.0,1403.0,1107.0
28762,980.0,1403.0,1107.0
28763,980.0,1403.0,1107.0
28764,980.0,1403.0,1039.0
28765,980.0,1403.0,1039.0
28766,980.0,1403.0,1039.0
28767,980.0,1403.0,1039.0
28768,980.0,1403.0,1039.0
28769,980.0,1403.0,1039.0
28770,980.0,1403.0,1046.0
28771,980.0,1403.0,1046.0
28772,980.0,2216.0,790.0
28773,980.0,2216.0,790.0
28774,980.0,1176.0,790.0
28775,980.0,1176.0,790.0
28776,980.0,1176.0,790.0
28777,980.0,1176.0,790.0
28778,980.0,1176.0,790.0
28779,980.0,1176.0,790.0
28780,980.0,1176.0,457.0
28781,980.0,1176.0,517.0
28782,980.0,1176.0,517.0
28783,980.0,1176.0,517.0
28784,980.0,1176.0,517.0
28785,980.0,1176.0,517.0
28786,980.0,1176.0,517.0
28787,980.0,1176.0,517.0
28788,980.0,1176.0,517.0
28789,980.0,1176.0,517.0
28790,980.0,1176.0,517.0
28791,980.0,1176.0,517.0
28792,980.0,1176.0,517.0
28793,980.0,2219.0,517.0
28794,980.0,2219.0,517.0
28795,980.0,2219.0,517.0
28796,980.0,2219.0,517.0
28797,980.0,2219.0,517.0
28798,980.0,2219.0,557.0
28799,980.0,2219.0,557.0
28800,980.0,2219.0,1124.0
28801,980.0,2219.0,1124.0
28802,980.0,2219.0,1124.0
28803,980.0,2219.0,596.0
28804,980.0,1938.0,596.0
28805,980.0,1938.0,596.0
28806,980.0,1938.0,596.0
28807,980.0,1938.0,596.0
28808,980.0,1938.0,1275.0
28809,980.0,1938.0,1275.0
28810,980.0,1938.0,1275.0
28811,980.0,2610.0,1275.0
28812,980.0,2610.0,1275.0
28813,980.0,2528.0,578.0
28814,980.0,2528.0,578.0
28815,980.0,2528.0,578.0
28816,980.0,2528.0,578.0
28817,980.0,2528.0,578.0
28818,980.0,2528.0,578.0
28819,980.0,2528.0,578.0
28820,980.0,2528.0,578.0
28821,980.0,2528.0,578.0
28822,980.0,2528.0,578.0
28823,980.0,2528.0,578.0
28824,980.0,2528.0,578.0
28825,980.0,2528.0,578.0
28826,980.0,2528.0,578.0
28827,980.0,2528.0,578.0
28828,980.0,2528.0,578.0
28829,980.0,2528.0,578.0
28830,980.0,2528.0,578.0
28831,980.0,2528.0,578.0
28832,980.0,2528.0,578.0
28833,980.0,2528.0,578.0
28834,980.0,2528.0,578.0
28835,980.0,2528.0,578.0
28836,980.0,2528.0,578.0
28837,980.0,2528.0,578.0
28838,980.0,2528.0,578.0
28839,980.0,2528.0,578.0
28840,980.0,2528.0,578.0
28841,980.0,2528.0,578.0
28842,980.0,2528.0,578.0
28843,980.0,2528.0,952.0
28844,980.0,2528.0,952.0
28845,980.0,2528.0,952.0
28846,980.0,2528.0,952.0
28847,980.0,2528.0,952.0
28848,980.0,2528.0,952.0
28849,980.0,2528.0,952.0
28850,980.0,2528.0,952.0
28851,980.0,2528.0,952.0
28852,980.0,2528.0,952.0
28853,980.0,2528.0,952.0
28854,980.0,2528.0,952.0
28855,980.0,2528.0,952.0
28856,980.0,2528.0,952.0
28857,980.0,2528.0,860.0
28858,980.0,2528.0,860.0
28859,980.0,2528.0,860.0
28860,980.0,2528.0,860.0
28861,980.0,2528.0,860.0
28862,980.0,2528.0,860.0
30509,137.0,231.0,1156.0
30510,137.0,778.0,1156.0
30511,137.0,857.0,1156.0
30512,137.0,857.0,1156.0
30513,137.0,857.0,1156.0
30514,137.0,857.0,1156.0
30515,137.0,810.0,1156.0
30516,137.0,1020.0,1156.0
30517,137.0,1020.0,1156.0
30518,162.0,1020.0,1156.0
30519,162.0,1020.0,1156.0
30520,162.0,1020.0,1156.0
30521,162.0,1020.0,1156.0
30522,162.0,1020.0,916.0
30523,162.0,1020.0,916.0
30524,162.0,1020.0,916.0
30525,162.0,676.0,916.0
30526,162.0,676.0,916.0
30527,162.0,676.0,916.0
30528,162.0,676.0,916.0
30529,162.0,676.0,916.0
30530,162.0,676.0,916.0
30531,162.0,676.0,916.0
30532,162.0,326.0,916.0
30533,162.0,326.0,916.0
30534,162.0,1161.0,916.0
30535,162.0,1161.0,916.0
30536,162.0,253.0,916.0
30537,162.0,785.0,916.0
30538,162.0,785.0,916.0
30539,162.0,773.0,916.0
30540,162.0,773.0,916.0
30541,162.0,773.0,916.0
30542,162.0,276.0,916.0
30543,162.0,276.0,916.0
30544,162.0,276.0,916.0
30545,162.0,276.0,916.0
30546,162.0,276.0,916.0
30547,162.0,679.0,916.0
30548,162.0,679.0,916.0
30549,162.0,679.0,916.0
30550,162.0,679.0,916.0
30551,162.0,679.0,916.0
30552,322.0,679.0,916.0
30553,322.0,679.0,916.0
30554,322.0,679.0,916.0
30555,322.0,679.0,916.0
30556,322.0,679.0,916.0
30557,322.0,947.0,916.0
30558,322.0,624.0,916.0
30559,322.0,1021.0,916.0
30560,322.0,1373.0,916.0
30561,322.0,1241.0,916.0
30562,322.0,581.0,916.0
30563,322.0,1128.0,916.0
30564,322.0,1128.0,916.0
30565,322.0,785.0,916.0
30566,322.0,785.0,916.0
30567,322.0,785.0,916.0
30568,322.0,785.0,916.0
30569,149.0,785.0,916.0
30570,149.0,785.0,916.0
30571,149.0,785.0,916.0
30572,149.0,785.0,916.0
30573,149.0,785.0,916.0
30574,226.0,535.0,916.0
30575,218.0,535.0,916.0
30576,218.0,619.0,916.0
30577,218.0,619.0,916.0
30578,218.0,619.0,916.0
30579,218.0,619.0,916.0
30580,218.0,619.0,916.0
30581,218.0,619.0,916.0
30582,218.0,619.0,916.0
30583,218.0,1101.0,916.0
30584,218.0,1101.0,916.0
30585,218.0,665.0,916.0
30586,218.0,665.0,916.0
30587,218.0,665.0,916.0
30588,218.0,665.0,916.0
30589,218.0,556.0,916.0
30590,218.0,556.0,916.0
30591,148.0,556.0,916.0
30592,148.0,556.0,667.0
30593,148.0,556.0,667.0
30594,148.0,556.0,667.0
30595,148.0,556.0,667.0
30596,148.0,556.0,667.0
30597,148.0,556.0,667.0
30598,148.0,556.0,633.0
30599,148.0,556.0,633.0
30600,148.0,556.0,633.0
30601,148.0,556.0,633.0
30602,148.0,1203.0,633.0
30603,148.0,1203.0,633.0
30604,148.0,1203.0,633.0
30605,148.0,1203.0,633.0
30606,148.0,1203.0,633.0
30607,148.0,1203.0,633.0
30608,148.0,1203.0,633.0
30609,148.0,1203.0,633.0
30610,148.0,1203.0,633.0
30611,148.0,1203.0,633.0
30612,148.0,1203.0,768.0
30613,148.0,1203.0,768.0
30614,148.0,1290.0,768.0
30615,148.0,445.0,768.0
30616,148.0,445.0,768.0
30617,148.0,497.0,768.0
30618,148.0,1185.0,768.0
30619,148.0,1186.0,768.0
30620,148.0,1186.0,768.0
30621,148.0,1186.0,768.0
30622,148.0,1186.0,768.0
30623,148.0,1186.0,768.0
30624,148.0,1186.0,768.0
30625,148.0,1186.0,768.0
30626,148.0,1186.0,768.0
30627,148.0,1186.0,768.0
30628,148.0,1186.0,768.0
30629,148.0,1186.0,768.0
30630,148.0,1186.0,768.0
30631,148.0,807.0,768.0
30632,148.0,807.0,768.0
30633,148.0,807.0,768.0
30634,148.0,807.0,768.0
30635,148.0,807.0,768.0
30636,148.0,807.0,768.0
30637,148.0,807.0,768.0
30638,148.0,807.0,768.0
30639,497.0,807.0,768.0
30640,497.0,807.0,768.0
30641,332.0,807.0,768.0
30642,332.0,807.0,768.0
30643,332.0,341.0,768.0
30644,332.0,341.0,768.0
30645,332.0,341.0,768.0
30646,418.0,341.0,768.0
30647,418.0,341.0,768.0
30648,418.0,531.0,768.0
30649,418.0,531.0,768.0
30650,418.0,531.0,768.0
30651,418.0,450.0,768.0
30652,418.0,450.0,768.0
30653,418.0,450.0,768.0
30654,418.0,450.0,768.0
30655,418.0,450.0,768.0
30656,418.0,450.0,768.0
30657,418.0,600.0,768.0
30658,418.0,1299.0,768.0
30659,418.0,1299.0,768.0
30660,454.0,1299.0,768.0
31912,136.0,823.0,927.0
31913,136.0,540.0,927.0
31914,136.0,540.0,927.0
31915,136.0,540.0,927.0
31916,136.0,540.0,927.0
31917,136.0,540.0,927.0
31918,136.0,540.0,927.0
31919,136.0,743.0,927.0
31920,136.0,512.0,927.0
31921,136.0,512.0,927.0
31922,136.0,1274.0,927.0
31923,136.0,1274.0,927.0
31924,136.0,1274.0,927.0
31925,136.0,1274.0,927.0
31926,448.0,1833.0,490.0
31927,448.0,1833.0,490.0
31928,448.0,1833.0,490.0
31929,448.0,1833.0,490.0
31930,448.0,592.0,490.0
31931,448.0,592.0,490.0
31932,448.0,592.0,490.0
31933,448.0,1106.0,490.0
31934,448.0,1861.0,490.0
31935,448.0,1861.0,490.0
31936,448.0,1861.0,490.0
31937,448.0,817.0,490.0
31938,448.0,817.0,490.0
31939,448.0,817.0,490.0
31940,448.0,817.0,490.0
31941,166.0,817.0,490.0
31942,166.0,817.0,490.0
31943,166.0,817.0,490.0
31944,166.0,817.0,490.0
31945,166.0,1120.0,490.0
31946,166.0,1120.0,490.0
31947,166.0,2346.0,490.0
31948,166.0,2346.0,490.0
31949,166.0,2346.0,490.0
31950,166.0,2346.0,490.0
31951,166.0,2346.0,490.0
31952,166.0,2346.0,490.0
31953,166.0,2346.0,490.0
31954,166.0,2346.0,490.0
31955,942.0,2346.0,490.0
31956,942.0,2346.0,490.0
31957,942.0,2346.0,490.0
31958,942.0,2346.0,490.0
31959,942.0,1244.0,490.0
31960,942.0,1244.0,490.0
31961,942.0,1244.0,490.0
31962,942.0,1244.0,490.0
31963,942.0,2003.0,490.0
31964,942.0,2003.0,490.0
31965,942.0,2003.0,490.0
31966,942.0,629.0,490.0
31967,942.0,2000.0,490.0
31968,942.0,2000.0,490.0
31969,500.0,2000.0,490.0
31970,500.0,2000.0,490.0
31971,500.0,2000.0,490.0
31972,500.0,1195.0,490.0
31973,500.0,1195.0,490.0
31974,500.0,1195.0,490.0
31975,500.0,1195.0,490.0
31976,500.0,1195.0,490.0
31977,500.0,873.0,490.0
31978,500.0,873.0,650.0
31979,500.0,873.0,650.0
31980,500.0,873.0,650.0
31981,490.0,873.0,650.0
31982,490.0,873.0,650.0
31983,490.0,1718.0,650.0
31984,187.0,2158.0,650.0
31985,187.0,2028.0,650.0
31986,187.0,2028.0,650.0
31987,187.0,2028.0,650.0
31988,288.0,2028.0,650.0
31989,288.0,2028.0,650.0
31990,288.0,1448.0,650.0
31991,288.0,1220.0,650.0
31992,288.0,1220.0,650.0
31993,288.0,967.0,650.0
31994,288.0,1279.0,650.0
31995,288.0,1279.0,650.0
31996,288.0,1006.0,650.0
31997,288.0,1272.0,650.0
31998,288.0,2414.0,650.0
31999,288.0,2414.0,650.0
32000,288.0,2414.0,650.0
32001,288.0,2414.0,650.0
32002,288.0,2414.0,650.0
32003,288.0,2414.0,650.0
32004,549.0,2414.0,650.0
32005,276.0,2414.0,650.0
32006,276.0,2414.0,650.0
32007,276.0,887.0,650.0
32008,276.0,1369.0,650.0
32009,276.0,781.0,650.0
32010,286.0,781.0,650.0
32011,286.0,1406.0,650.0
32012,286.0,1406.0,650.0
32013,286.0,1406.0,650.0
32014,286.0,1280.0,1811.0
32015,286.0,1280.0,1811.0
32016,286.0,1679.0,1811.0
32017,286.0,1679.0,1811.0
32018,113.0,1679.0,1811.0
32019,113.0,1679.0,1811.0
32020,113.0,1679.0,1811.0
32021,113.0,1679.0,1811.0
32022,113.0,396.0,1811.0
32023,113.0,396.0,1811.0
32024,113.0,1927.0,1811.0
32025,113.0,1927.0,1811.0
32026,113.0,834.0,1811.0
32027,113.0,834.0,1811.0
32028,113.0,834.0,1811.0
32029,113.0,834.0,1811.0
32030,113.0,1295.0,1811.0
32031,598.0,1295.0,1811.0
32032,598.0,1295.0,1811.0
32033,598.0,1295.0,1811.0
32034,598.0,1295.0,1811.0
32035,598.0,1295.0,1811.0
32036,598.0,1295.0,1811.0
32037,598.0,1295.0,1811.0
32038,598.0,1295.0,1811.0
32039,928.0,771.0,1811.0
32040,928.0,771.0,1811.0
32041,928.0,1091.0,1811.0
33223,234.0,771.0,104.0
33224,303.0,660.0,104.0
33225,376.0,660.0,104.0
33226,376.0,660.0,104.0
33227,348.0,660.0,104.0
33228,348.0,660.0,104.0
33229,348.0,660.0,104.0
33230,348.0,660.0,380.0
33231,348.0,660.0,380.0
33232,348.0,660.0,380.0
33233,348.0,660.0,380.0
33234,348.0,660.0,380.0
33235,169.0,660.0,380.0
33236,169.0,660.0,380.0
33237,169.0,660.0,380.0
33238,169.0,461.0,380.0
33239,169.0,461.0,380.0
33240,169.0,461.0,380.0
33241,169.0,461.0,380.0
33242,169.0,461.0,380.0
33243,169.0,461.0,380.0
33244,169.0,461.0,380.0
33245,169.0,461.0,380.0
33246,189.0,461.0,380.0
33247,189.0,461.0,380.0
33248,189.0,461.0,380.0
33249,252.0,461.0,380.0
33250,154.0,461.0,380.0
33251,154.0,461.0,380.0
33252,154.0,461.0,479.0
33253,154.0,461.0,479.0
33254,154.0,461.0,560.0
33255,154.0,461.0,560.0
33256,154.0,578.0,249.0
33257,154.0,578.0,249.0
33258,154.0,640.0,249.0
33259,154.0,640.0,249.0
33260,154.0,718.0,249.0
33261,154.0,718.0,249.0
33262,154.0,718.0,263.0
33263,624.0,718.0,263.0
33264,624.0,718.0,263.0
33265,624.0,718.0,263.0
33266,624.0,718.0,263.0
33267,624.0,718.0,263.0
33268,624.0,718.0,417.0
33269,624.0,718.0,417.0
33270,624.0,718.0,417.0
33271,624.0,718.0,417.0
33272,624.0,718.0,355.0
33273,624.0,718.0,355.0
33274,624.0,718.0,355.0
33275,624.0,718.0,355.0
33276,624.0,718.0,355.0
33277,929.0,718.0,355.0
33278,929.0,718.0,355.0
33279,929.0,718.0,355.0
33280,929.0,718.0,355.0
33281,929.0,718.0,355.0
33282,929.0,718.0,355.0
33283,929.0,718.0,355.0
33284,401.0,718.0,355.0
33285,401.0,718.0,355.0
33286,5567.0,718.0,355.0
33287,567.0,718.0,355.0
33288,567.0,718.0,355.0
33289,25267.0,718.0,355.0
33290,3007.0,718.0,972.0
33291,307.0,718.0,972.0
33292,307.0,718.0,972.0
33293,307.0,718.0,972.0
33294,307.0,718.0,972.0
33295,451.0,718.0,972.0
33296,207.0,718.0,972.0
33297,207.0,718.0,972.0
33298,207.0,718.0,972.0
33299,207.0,718.0,972.0
33300,207.0,718.0,972.0
33301,237.0,718.0,972.0
33302,237.0,718.0,972.0
33303,237.0,718.0,972.0
33304,237.0,718.0,972.0
33305,237.0,718.0,972.0
33306,237.0,718.0,972.0
33307,237.0,718.0,500.0
33308,237.0,718.0,500.0
33309,237.0,718.0,500.0
33310,237.0,718.0,500.0
33311,237.0,718.0,235.0
33312,237.0,718.0,235.0
33313,237.0,718.0,283.0
33314,237.0,718.0,283.0
33315,237.0,718.0,283.0
33316,237.0,718.0,283.0
33317,237.0,718.0,323.0
33318,237.0,718.0,323.0
33319,237.0,718.0,323.0
33320,237.0,718.0,214.0
33321,237.0,718.0,214.0
33322,237.0,718.0,333.0
33323,237.0,718.0,333.0
33324,237.0,718.0,429.0
33325,237.0,718.0,429.0
33326,237.0,718.0,429.0
33327,237.0,718.0,703.0
33328,237.0,718.0,703.0
33329,237.0,718.0,703.0
33330,237.0,718.0,425.0
33331,2.0,718.0,425.0
33332,32327.0,718.0,386.0
33333,327.0,718.0,386.0
33334,327.0,718.0,386.0
33335,327.0,718.0,386.0
33336,328.0,718.0,424.0
33337,328.0,718.0,424.0
33338,300.0,718.0,424.0
33339,300.0,718.0,464.0
33340,300.0,718.0,428.0
33341,300.0,718.0,428.0
33342,300.0,718.0,428.0
33343,3300.0,718.0,428.0
33344,300.0,718.0,428.0
33345,300.0,718.0,428.0
33346,300.0,718.0,428.0
33347,300.0,718.0,428.0
33348,214.0,718.0,428.0
33349,214.0,718.0,428.0
33350,214.0,718.0,428.0
33351,214.0,718.0,428.0
33352,214.0,718.0,428.0
33353,250.0,718.0,428.0
33354,250.0,718.0,428.0
35011,475.0,899.0,187.0
35012,475.0,197.0,443.0
35013,550.0,197.0,443.0
35014,100.0,197.0,443.0
35015,153.0,197.0,443.0
35016,153.0,197.0,443.0
35017,153.0,197.0,443.0
35018,153.0,197.0,443.0
35019,153.0,197.0,443.0
35020,153.0,197.0,443.0
35021,153.0,197.0,443.0
35022,325.0,326.0,443.0
35023,325.0,326.0,443.0
35024,325.0,326.0,443.0
35025,325.0,324.0,443.0
35026,325.0,324.0,443.0
35027,325.0,324.0,367.0
35028,325.0,324.0,367.0
35029,139.0,723.0,367.0
35030,139.0,723.0,367.0
35031,139.0,723.0,367.0
35032,447.0,723.0,367.0
35033,447.0,723.0,367.0
35034,909.0,723.0,367.0
35035,645.0,723.0,367.0
35036,645.0,723.0,367.0
35037,1144.0,723.0,367.0
35038,1144.0,723.0,367.0
35039,1144.0,723.0,367.0
35040,1144.0,411.0,367.0
35041,1144.0,335.0,367.0
35042,1144.0,335.0,367.0
35043,1144.0,581.0,367.0
35044,1144.0,581.0,367.0
35045,1144.0,581.0,302.0
35046,1144.0,581.0,302.0
35047,1144.0,581.0,302.0
35048,1144.0,125.0,302.0
35049,1144.0,125.0,241.0
35050,11144.0,125.0,241.0
35051,1144.0,125.0,93.0
35052,1144.0,125.0,93.0
35053,1144.0,125.0,93.0
35054,1144.0,157.0,93.0
35055,1144.0,157.0,93.0
35056,1144.0,157.0,93.0
35057,1144.0,157.0,565.0
35058,1144.0,157.0,565.0
35059,1144.0,157.0,565.0
35060,1144.0,157.0,194.0
35061,1144.0,157.0,194.0
35062,1144.0,157.0,194.0
35063,1144.0,157.0,194.0
35064,1144.0,157.0,194.0
35065,1144.0,532.0,194.0
35066,1144.0,532.0,194.0
35067,1144.0,532.0,194.0
35068,1144.0,532.0,194.0
35069,1144.0,336.0,194.0
35070,1144.0,336.0,194.0
35071,1144.0,336.0,194.0
35072,1144.0,187.0,194.0
35073,1144.0,187.0,194.0
35074,1144.0,187.0,194.0
35075,44.0,187.0,194.0
35076,1144.0,187.0,194.0
35077,1144.0,316.0,194.0
35078,549.0,269.0,194.0
35079,549.0,269.0,194.0
35080,549.0,269.0,194.0
35081,549.0,269.0,194.0
35082,549.0,269.0,194.0
35083,549.0,314.0,194.0
35084,549.0,224.0,194.0
35085,549.0,249.0,194.0
35086,549.0,249.0,194.0
35087,549.0,235.0,194.0
35088,549.0,235.0,194.0
35089,549.0,235.0,194.0
35090,549.0,309.0,194.0
35091,549.0,309.0,194.0
35092,549.0,309.0,194.0
35093,549.0,465.0,194.0
35094,549.0,465.0,194.0
35095,549.0,465.0,194.0
35096,549.0,465.0,194.0
35097,549.0,465.0,194.0
35098,549.0,465.0,194.0
35099,549.0,465.0,194.0
35100,549.0,465.0,194.0
35101,549.0,465.0,194.0
35102,549.0,465.0,194.0
35103,549.0,465.0,194.0
35104,549.0,465.0,194.0
35105,549.0,465.0,194.0
35106,549.0,465.0,194.0
35107,549.0,465.0,194.0
35108,549.0,465.0,194.0
35109,549.0,465.0,194.0
35110,549.0,465.0,194.0
35111,549.0,252.0,194.0
35112,549.0,432.0,194.0
35113,549.0,432.0,194.0
35114,549.0,432.0,194.0
35115,549.0,432.0,194.0
35116,549.0,432.0,194.0
35117,549.0,432.0,194.0
35118,549.0,323.0,194.0
35119,549.0,355.0,194.0
35120,549.0,939.0,194.0
35121,549.0,939.0,194.0
35122,5549.0,303.0,194.0
35123,549.0,303.0,194.0
35124,549.0,303.0,194.0
35125,549.0,303.0,194.0
35126,549.0,303.0,194.0
35127,549.0,448.0,194.0
35128,549.0,448.0,194.0
35129,549.0,448.0,194.0
35130,549.0,448.0,194.0
35131,549.0,448.0,194.0
35132,549.0,334.0,194.0
35133,549.0,334.0,194.0
35134,419.0,334.0,194.0
35135,419.0,334.0,194.0
35136,419.0,334.0,194.0
35137,419.0,334.0,194.0
35138,419.0,334.0,194.0
35139,419.0,334.0,194.0
35140,419.0,232.0,194.0
35141,419.0,232.0,194.0
35142,419.0,394.0,194.0
35143,419.0,394.0,194.0
35144,419.0,394.0,194.0
35145,419.0,394.0,194.0
35146,419.0,394.0,194.0
36791,208.0,2956.0,2457.0
36792,208.0,2956.0,2457.0
36793,208.0,2956.0,2457.0
36794,208.0,2956.0,2457.0
36795,208.0,615.0,2457.0
36796,208.0,615.0,2457.0
36797,208.0,615.0,2457.0
36798,208.0,1873.0,2457.0
36799,208.0,1247.0,2457.0
36800,208.0,1336.0,2457.0
36801,208.0,1336.0,2457.0
36802,208.0,1336.0,2457.0
36803,208.0,1336.0,2457.0
36804,208.0,1336.0,2457.0
36805,208.0,1336.0,2457.0
36806,208.0,1336.0,2457.0
36807,208.0,1336.0,2457.0
36808,489.0,1336.0,2457.0
36809,489.0,1336.0,2457.0
36810,489.0,1336.0,2457.0
36811,489.0,1336.0,2457.0
36812,489.0,1336.0,2457.0
36813,489.0,1336.0,2457.0
36814,489.0,1336.0,2457.0
36815,489.0,1336.0,2457.0
36816,489.0,1336.0,2457.0
36817,489.0,1336.0,2457.0
36818,489.0,1336.0,2457.0
36819,489.0,1336.0,2457.0
36820,464.0,1336.0,2457.0
36821,305.0,1336.0,2457.0
36822,305.0,1336.0,2457.0
36823,305.0,1956.0,2457.0
36824,305.0,1956.0,2457.0
36825,305.0,1956.0,2457.0
36826,305.0,1956.0,2457.0
36827,801.0,1956.0,2457.0
36828,801.0,1956.0,2457.0
36829,801.0,1956.0,2457.0
36830,801.0,1956.0,2457.0
36831,866.0,1956.0,2457.0
36832,866.0,1956.0,1509.0
36833,866.0,1956.0,1509.0
36834,866.0,1956.0,1509.0
36835,7768.0,1956.0,1509.0
36836,768.0,1956.0,1509.0
36837,768.0,1956.0,1509.0
36838,768.0,1956.0,1509.0
36839,768.0,1956.0,1509.0
36840,768.0,818.0,1509.0
36841,519.0,818.0,1509.0
36842,519.0,818.0,1720.0
36843,519.0,818.0,1720.0
36844,519.0,818.0,1720.0
36845,519.0,818.0,1720.0
36846,519.0,818.0,1720.0
36847,519.0,818.0,1720.0
36848,900.0,818.0,1720.0
36849,519.0,2790.0,1720.0
36850,383.0,2790.0,1720.0
36851,383.0,1209.0,1720.0
36852,383.0,1209.0,1720.0
36853,383.0,1209.0,1720.0
36854,3833.0,1209.0,1720.0
36855,383.0,1209.0,1720.0
36856,383.0,1209.0,1720.0
36857,383.0,2162.0,1720.0
36858,383.0,2162.0,1720.0
36859,383.0,1185.0,1720.0
36860,383.0,1185.0,1720.0
36861,383.0,1892.0,1720.0
36862,383.0,817.0,1720.0
36863,383.0,817.0,1720.0
36864,383.0,817.0,1720.0
36865,383.0,817.0,1720.0
36866,383.0,817.0,1720.0
36867,383.0,817.0,1720.0
36868,383.0,817.0,1720.0
36869,383.0,817.0,1720.0
36870,383.0,817.0,1720.0
36871,383.0,817.0,1720.0
36872,383.0,817.0,1720.0
36873,383.0,817.0,1720.0
36874,383.0,817.0,1720.0
36875,383.0,817.0,1720.0
36876,383.0,817.0,1720.0
36877,383.0,1689.0,1720.0
36878,383.0,1689.0,1720.0
36879,383.0,1689.0,1720.0
36880,383.0,1689.0,1720.0
36881,383.0,1842.0,1720.0
36882,383.0,1842.0,1720.0
36883,383.0,1842.0,1720.0
36884,383.0,1842.0,1720.0
36885,383.0,1387.0,1720.0
36886,383.0,1387.0,1720.0
36887,383.0,1042.0,1720.0
36888,383.0,1042.0,1720.0
36889,383.0,1320.0,1720.0
36890,383.0,1518.0,1720.0
36891,383.0,1518.0,1720.0
36892,383.0,1142.0,1720.0
36893,383.0,1142.0,1720.0
36894,383.0,2225.0,1720.0
36895,383.0,2225.0,1720.0
36896,383.0,1183.0,1720.0
36897,383.0,1183.0,1720.0
36898,383.0,1183.0,1720.0
36899,383.0,1183.0,1720.0
36900,383.0,1787.0,1720.0
36901,383.0,1787.0,1720.0
36902,383.0,1787.0,1720.0
36903,383.0,1787.0,1720.0
36904,383.0,1787.0,1720.0
36905,383.0,1787.0,1720.0
36906,383.0,1787.0,1720.0
36907,383.0,1787.0,1720.0
36908,383.0,1787.0,1720.0
36909,383.0,1787.0,1720.0
36910,383.0,1787.0,1720.0
36911,383.0,1787.0,1720.0
36912,383.0,1787.0,1720.0
36913,383.0,1787.0,1720.0
36914,383.0,1787.0,1720.0
36915,383.0,1787.0,1720.0
36916,383.0,1787.0,1720.0
36917,383.0,1787.0,1720.0
36918,383.0,1787.0,1720.0
36919,383.0,1104.0,1720.0
36920,383.0,1104.0,1720.0
36921,383.0,1104.0,1720.0
38714,299.0,1136.0,2441.0
38715,299.0,1136.0,2441.0
38716,299.0,1136.0,2441.0
38717,299.0,2214.0,2441.0
38718,299.0,1245.0,2441.0
38719,299.0,1245.0,2441.0
38720,299.0,1245.0,1449.0
38721,299.0,1245.0,1449.0
38722,299.0,1245.0,1449.0
38723,299.0,1245.0,1449.0
38724,2.0,1245.0,1449.0
38725,2999.0,1245.0,1449.0
38726,299.0,1245.0,1449.0
38727,299.0,2145.0,1449.0
38728,299.0,2145.0,1449.0
38729,299.0,2145.0,1449.0
38730,299.0,2145.0,1449.0
38731,299.0,2145.0,1449.0
38732,299.0,2145.0,1449.0
38733,299.0,2145.0,1449.0
38734,299.0,2145.0,1449.0
38735,299.0,2145.0,1449.0
38736,299.0,2145.0,1449.0
38737,299.0,2145.0,1449.0
38738,299.0,2145.0,1449.0
38739,299.0,2145.0,1449.0
38740,299.0,2145.0,1449.0
38741,299.0,2145.0,1449.0
38742,299.0,1466.0,1559.0
38743,299.0,1466.0,1559.0
38744,299.0,1466.0,1559.0
38745,299.0,1466.0,1559.0
38746,299.0,1466.0,1559.0
38747,299.0,1466.0,1559.0
38748,299.0,1466.0,1559.0
38749,299.0,1466.0,1559.0
38750,299.0,1466.0,3920.0
38751,299.0,1466.0,3920.0
38752,299.0,1466.0,3920.0
38753,299.0,1466.0,3920.0
38754,299.0,1466.0,3920.0
38755,299.0,1466.0,3920.0
38756,299.0,1466.0,3920.0
38757,299.0,1466.0,3920.0
38758,299.0,1466.0,3920.0
38759,299.0,1466.0,3920.0
38760,299.0,1466.0,3920.0
38761,389.0,1466.0,3920.0
38762,389.0,1466.0,3920.0
38763,389.0,1466.0,3920.0
38764,389.0,1466.0,3920.0
38765,359.0,1466.0,3920.0
38766,359.0,1466.0,3920.0
38767,555.0,1466.0,3920.0
38768,678.0,1466.0,3920.0
38769,678.0,1466.0,3920.0
38770,996.0,1466.0,3920.0
38771,996.0,1466.0,3920.0
38772,996.0,1466.0,3920.0
38773,996.0,1768.0,3920.0
38774,996.0,1768.0,2297.0
38775,996.0,1768.0,2297.0
38776,851.0,1768.0,1601.0
38777,851.0,1768.0,1601.0
38778,851.0,1768.0,2197.0
38779,851.0,1768.0,2197.0
38780,851.0,1768.0,2197.0
38781,851.0,1768.0,2197.0
38782,851.0,1768.0,2197.0
38783,851.0,1768.0,2197.0
38784,851.0,1768.0,2197.0
38785,851.0,1768.0,2197.0
38786,851.0,1768.0,2197.0
38787,9.0,1768.0,2197.0
38788,851.0,1768.0,2197.0
38789,851.0,1768.0,2197.0
38790,851.0,1768.0,2197.0
38791,851.0,1768.0,2197.0
38792,8551.0,1768.0,2197.0
38793,8851.0,1768.0,2197.0
38794,851.0,1768.0,2197.0
38795,851.0,1768.0,2197.0
38796,1192.0,1768.0,2197.0
38797,719.0,1768.0,2197.0
38798,719.0,1768.0,2197.0
38799,719.0,1768.0,2197.0
38800,719.0,1768.0,2197.0
38801,719.0,1768.0,2197.0
38802,719.0,1768.0,2197.0
38803,719.0,1768.0,2197.0
38804,719.0,1768.0,2197.0
38805,719.0,1768.0,2197.0
38806,719.0,1768.0,2197.0
38807,719.0,2053.0,2197.0
38808,719.0,2053.0,2197.0
38809,719.0,2053.0,2197.0
38810,719.0,2053.0,2197.0
38811,719.0,2053.0,2197.0
38812,719.0,2053.0,2197.0
38813,719.0,2053.0,2197.0
38814,719.0,2053.0,2197.0
38815,539.0,2053.0,2197.0
38816,539.0,2053.0,2197.0
38817,539.0,2053.0,2197.0
38818,539.0,2053.0,2197.0
38819,539.0,2053.0,2197.0
38820,539.0,2053.0,2197.0
38821,599.0,2053.0,2197.0
38822,599.0,1702.0,2197.0
38823,599.0,1702.0,2197.0
38824,599.0,1702.0,2197.0
38825,319.0,1702.0,2197.0
38826,668.0,1702.0,2197.0
38827,1104.0,1702.0,2197.0
38828,706.0,1702.0,2197.0
38829,706.0,1702.0,2197.0
38830,706.0,1702.0,2197.0
38831,706.0,1702.0,2197.0
38832,706.0,1702.0,2197.0
38833,706.0,1702.0,2197.0
38834,706.0,1702.0,2197.0
38835,706.0,1702.0,2197.0
38836,706.0,1702.0,2197.0
38837,706.0,1702.0,2197.0
38838,70600.0,1702.0,2197.0
38839,480.0,1702.0,2197.0
38840,480.0,1702.0,2197.0
38841,507.0,1702.0,2197.0
38842,507.0,1702.0,2197.0
38843,507.0,1702.0,2197.0
38844,507.0,1702.0,2197.0
38845,507.0,1702.0,2197.0
38846,926.0,1702.0,2197.0
38847,926.0,1702.0,2197.0
38848,926.0,1702.0,2197.0
38849,926.0,1702.0,2197.0
38850,926.0,1702.0,2197.0
38851,926.0,1702.0,2197.0
40477,638.0,151.0,548.0
40478,638.0,151.0,548.0
40479,638.0,151.0,548.0
40480,638.0,151.0,548.0
40481,638.0,151.0,548.0
40482,638.0,151.0,548.0
40483,638.0,151.0,548.0
40484,638.0,151.0,548.0
40485,638.0,151.0,548.0
40486,638.0,151.0,548.0
40487,638.0,151.0,548.0
40488,638.0,151.0,548.0
40489,600.0,151.0,548.0
40490,600.0,151.0,548.0
40491,915.0,151.0,548.0
40492,610.0,151.0,548.0
40493,610.0,151.0,548.0
40494,610.0,151.0,548.0
40495,610.0,151.0,548.0
40496,610.0,151.0,548.0
40497,610.0,151.0,548.0
40498,610.0,151.0,548.0
40499,610.0,151.0,548.0
40500,610.0,231.0,548.0
40501,610.0,231.0,548.0
40502,610.0,231.0,548.0
40503,610.0,231.0,548.0
40504,610.0,231.0,548.0
40505,610.0,231.0,548.0
40506,610.0,231.0,548.0
40507,610.0,231.0,548.0
40508,610.0,231.0,548.0
40509,610.0,231.0,548.0
40510,610.0,231.0,1153.0
40511,610.0,231.0,1153.0
40512,610.0,231.0,1153.0
40513,610.0,231.0,1153.0
40514,610.0,231.0,1153.0
40515,610.0,231.0,1153.0
40516,610.0,231.0,1153.0
40517,610.0,231.0,1153.0
40518,610.0,231.0,1153.0
40519,610.0,231.0,1153.0
40520,610.0,231.0,1153.0
40521,610.0,231.0,1153.0
40522,610.0,231.0,1153.0
40523,610.0,231.0,1153.0
40524,610.0,231.0,1153.0
40525,610.0,231.0,1153.0
40526,610.0,231.0,1153.0
40527,610.0,231.0,1153.0
40528,610.0,231.0,1153.0
40529,610.0,231.0,1153.0
40530,610.0,231.0,1153.0
40531,661.0,231.0,1153.0
40532,661.0,231.0,1153.0
40533,661.0,231.0,1153.0
40534,661.0,231.0,1153.0
40535,661.0,317.0,1153.0
40536,661.0,317.0,1153.0
40537,661.0,317.0,1153.0
40538,661.0,317.0,1153.0
40539,1161.0,317.0,1153.0
40540,1161.0,317.0,1153.0
40541,1161.0,317.0,1153.0
40542,1161.0,317.0,1153.0
40543,1042.0,317.0,1153.0
40544,1042.0,317.0,1153.0
40545,1590.0,317.0,1153.0
40546,1590.0,317.0,1153.0
40547,1590.0,317.0,1153.0
40548,1590.0,317.0,1153.0
40549,1590.0,317.0,1153.0
40550,1590.0,317.0,1153.0
40551,1590.0,317.0,1153.0
40552,1590.0,317.0,1153.0
40553,781.0,317.0,1153.0
40554,462.0,317.0,1153.0
40555,462.0,317.0,1153.0
40556,462.0,317.0,1153.0
40557,462.0,317.0,1153.0
40558,462.0,317.0,1153.0
40559,1017.0,317.0,1153.0
40560,1017.0,317.0,1153.0
40561,1017.0,317.0,1153.0
40562,1110.0,317.0,1153.0
40563,1110.0,317.0,1153.0
40564,1110.0,317.0,1153.0
40565,619.0,317.0,1153.0
40566,619.0,317.0,1153.0
40567,1371.0,317.0,1153.0
40568,723.0,317.0,1153.0
40569,723.0,317.0,1153.0
40570,723.0,317.0,1153.0
40571,723.0,317.0,1153.0
40572,723.0,317.0,1153.0
40573,723.0,317.0,1153.0
40574,723.0,317.0,1153.0
40575,723.0,317.0,1153.0
40576,723.0,317.0,1153.0
40577,723.0,317.0,1153.0
40578,723.0,317.0,1153.0
40579,723.0,317.0,1153.0
40580,292.0,317.0,1153.0
40581,1314.0,317.0,1153.0
40582,1314.0,317.0,1153.0
40583,558.0,317.0,1153.0
40584,506.0,317.0,1153.0
40585,506.0,317.0,1153.0
40586,506.0,317.0,1153.0
40587,506.0,317.0,1153.0
40588,506.0,317.0,1153.0
40589,506.0,317.0,1153.0
40590,506.0,317.0,1153.0
40591,506.0,317.0,1153.0
40592,506.0,317.0,1153.0
40593,506.0,317.0,1153.0
40594,506.0,317.0,1153.0
40595,506.0,317.0,1153.0
40596,506.0,317.0,1153.0
40597,506.0,317.0,1153.0
40598,506.0,317.0,1153.0
40599,506.0,317.0,1153.0
40600,506.0,317.0,1153.0
40601,506.0,317.0,1153.0
40602,506.0,317.0,1153.0
40603,506.0,317.0,1153.0
40604,506.0,317.0,1153.0
40605,506.0,317.0,1153.0
40606,506.0,317.0,1153.0
40607,506.0,317.0,1153.0
40608,506.0,317.0,1153.0
40609,506.0,317.0,1153.0
40610,470.0,317.0,1153.0
40611,470.0,317.0,1153.0
40612,470.0,317.0,1153.0
40613,470.0,317.0,1153.0
40614,335.0,317.0,1153.0
40615,335.0,317.0,1153.0
40616,803.0,317.0,1153.0
40617,803.0,317.0,1153.0
40618,1206.0,317.0,1153.0
40619,1206.0,317.0,1153.0
40620,1206.0,317.0,1153.0
40621,1206.0,317.0,1153.0
40622,1206.0,317.0,1153.0
40623,1206.0,317.0,1153.0
40624,1206.0,317.0,1153.0
40625,1206.0,317.0,1153.0
40626,1206.0,317.0,1153.0
40627,1206.0,317.0,1153.0
40628,603.0,317.0,1153.0
40629,603.0,317.0,1153.0
40630,1045.0,317.0,1153.0
40631,1045.0,317.0,1153.0
41784,693.0,150.0,675.0
41785,693.0,150.0,675.0
41786,693.0,150.0,675.0
41787,693.0,150.0,675.0
41788,693.0,85.0,675.0
41789,693.0,85.0,675.0
41790,693.0,85.0,675.0
41791,693.0,85.0,675.0
41792,693.0,85.0,675.0
41793,693.0,85.0,675.0
41794,693.0,85.0,675.0
41795,693.0,41.0,675.0
41796,693.0,41.0,675.0
41797,693.0,41.0,675.0
41798,693.0,41.0,675.0
41799,693.0,41.0,675.0
41800,693.0,41.0,675.0
41801,693.0,41.0,675.0
41802,693.0,41.0,675.0
41803,693.0,41.0,301.0
41804,693.0,41.0,301.0
41805,693.0,41.0,249.0
41806,693.0,41.0,642.0
41807,693.0,41.0,642.0
41808,693.0,41.0,642.0
41809,579.0,41.0,642.0
41810,579.0,41.0,642.0
41811,1202.0,41.0,642.0
41812,1202.0,41.0,642.0
41813,229.0,41.0,642.0
41814,229.0,41.0,642.0
41815,229.0,41.0,642.0
41816,229.0,41.0,642.0
41817,229.0,41.0,642.0
41818,229.0,41.0,642.0
41819,937.0,41.0,642.0
41820,937.0,91.0,642.0
41821,937.0,91.0,642.0
41822,937.0,91.0,642.0
41823,937.0,91.0,642.0
41824,937.0,91.0,642.0
41825,937.0,91.0,642.0
41826,937.0,91.0,642.0
41827,937.0,91.0,642.0
41828,937.0,91.0,642.0
41829,937.0,91.0,642.0
41830,937.0,91.0,642.0
41831,937.0,91.0,642.0
41832,937.0,91.0,642.0
41833,937.0,91.0,642.0
41834,937.0,91.0,642.0
41835,937.0,91.0,642.0
41836,937.0,91.0,642.0
41837,557.0,91.0,642.0
41838,557.0,91.0,642.0
41839,557.0,91.0,642.0
41840,557.0,91.0,642.0
41841,557.0,91.0,642.0
41842,557.0,91.0,642.0
41843,557.0,91.0,642.0
41844,1407.0,91.0,642.0
41845,1407.0,91.0,642.0
41846,1407.0,91.0,642.0
41847,766.0,91.0,642.0
41848,1297.0,91.0,642.0
41849,1297.0,91.0,642.0
41850,643.0,91.0,642.0
41851,643.0,91.0,642.0
41852,643.0,91.0,642.0
41853,1118.0,91.0,642.0
41854,1118.0,91.0,642.0
41855,594.0,91.0,642.0
41856,594.0,91.0,642.0
41857,594.0,91.0,642.0
41858,594.0,91.0,642.0
41859,660.0,91.0,642.0
41860,660.0,91.0,642.0
41861,421.0,91.0,642.0
41862,421.0,91.0,642.0
41863,421.0,91.0,642.0
41864,588.0,91.0,642.0
41865,588.0,91.0,642.0
41866,588.0,91.0,642.0
41867,588.0,91.0,642.0
41868,317.0,91.0,642.0
41869,317.0,91.0,642.0
41870,894.0,91.0,642.0
41871,1095.0,91.0,642.0
41872,1141.0,317.0,642.0
41873,1141.0,317.0,642.0
41874,1141.0,317.0,642.0
41875,1141.0,317.0,642.0
41876,1141.0,317.0,642.0
41877,1141.0,317.0,642.0
41878,1141.0,317.0,642.0
41879,1141.0,317.0,642.0
41880,1141.0,317.0,642.0
41881,1141.0,317.0,642.0
41882,1141.0,317.0,642.0
41883,1141.0,317.0,642.0
41884,1141.0,317.0,642.0
41885,1141.0,317.0,642.0
41886,1141.0,317.0,642.0
41887,1141.0,317.0,642.0
41888,1141.0,317.0,642.0
41889,1141.0,317.0,642.0
41890,1141.0,317.0,642.0
41891,370.0,317.0,642.0
41892,655.0,317.0,642.0
41893,655.0,317.0,642.0
41894,655.0,317.0,642.0
41895,655.0,317.0,642.0
41896,655.0,317.0,642.0
41897,655.0,317.0,642.0
41898,655.0,317.0,642.0
41899,655.0,317.0,642.0
41900,655.0,317.0,642.0
41901,655.0,317.0,642.0
41902,655.0,317.0,642.0
41903,612.0,317.0,642.0
41904,612.0,317.0,642.0
41905,612.0,317.0,642.0
41906,612.0,317.0,642.0
41907,612.0,317.0,642.0
41908,612.0,317.0,642.0
41909,612.0,317.0,642.0
41910,612.0,317.0,642.0
41911,924.0,317.0,642.0
41912,1234.0,317.0,642.0
41913,1234.0,317.0,642.0
41914,1234.0,317.0,642.0
41915,1234.0,317.0,642.0
41916,1234.0,317.0,642.0
41917,586.0,317.0,642.0
41918,586.0,317.0,642.0
41919,389.0,317.0,642.0
41920,389.0,317.0,642.0
41921,829.0,317.0,642.0
41922,829.0,317.0,642.0
41923,459.0,317.0,642.0
41924,968.0,317.0,642.0
41925,968.0,317.0,642.0
41926,815.0,317.0,642.0
41927,815.0,317.0,642.0
41928,815.0,317.0,642.0
41929,815.0,317.0,642.0
41930,815.0,317.0,642.0
41931,696.0,317.0,642.0
41932,522.0,317.0,642.0
41933,522.0,317.0,642.0
41934,522.0,317.0,642.0
41935,655.0,317.0,443.0
41936,655.0,317.0,443.0
41937,1074.0,317.0,443.0
41938,1074.0,317.0,443.0
43610,2363.0,1588.0,1954.0
43611,2363.0,1588.0,1954.0
43612,2363.0,1588.0,1954.0
43613,2363.0,1588.0,1954.0
43614,2363.0,1588.0,1954.0
43615,2363.0,1588.0,1061.0
43616,363.0,1588.0,1061.0
43617,22363.0,1588.0,1061.0
43618,2363.0,1588.0,1251.0
43619,2363.0,1588.0,1251.0
43620,2363.0,2092.0,1251.0
43621,2363.0,2092.0,1251.0
43622,2363.0,2092.0,1251.0
43623,2363.0,2092.0,1251.0
43624,2363.0,2092.0,1310.0
43625,2363.0,2092.0,1285.0
43626,2363.0,2092.0,1285.0
43627,2363.0,2092.0,639.0
43628,2363.0,2092.0,639.0
43629,2363.0,2092.0,1252.0
43630,2363.0,2092.0,1252.0
43631,2363.0,2092.0,1252.0
43632,2363.0,2092.0,1252.0
43633,23363.0,2092.0,1252.0
43634,2363.0,2092.0,1252.0
43635,2363.0,2092.0,1252.0
43636,2363.0,2092.0,1560.0
43637,2363.0,2396.0,1560.0
43638,2363.0,2396.0,1560.0
43639,2363.0,2396.0,1560.0
43640,2363.0,2396.0,1560.0
43641,3091.0,2396.0,1560.0
43642,2166.0,2396.0,1560.0
43643,2629.0,2396.0,1560.0
43644,4145.0,2396.0,1560.0
43645,4145.0,2396.0,1560.0
43646,4145.0,1441.0,1560.0
43647,914.0,1441.0,1560.0
43648,914.0,1441.0,1560.0
43649,914.0,1441.0,1560.0
43650,914.0,1441.0,1560.0
43651,2806.0,1441.0,1560.0
43652,2194.0,1441.0,1560.0
43653,2194.0,1441.0,1560.0
43654,2194.0,1441.0,1560.0
43655,2398.0,1441.0,1560.0
43656,2777.0,1441.0,1560.0
43657,1988.0,1441.0,1560.0
43658,2490.0,1441.0,1560.0
43659,4141.0,1441.0,1560.0
43660,2427.0,1441.0,1560.0
43661,2427.0,1441.0,1560.0
43662,2427.0,1435.0,1560.0
43663,2427.0,1532.0,1560.0
43664,2115.0,1532.0,1560.0
43665,3143.0,1532.0,1560.0
43666,3143.0,1532.0,1560.0
43667,3143.0,1532.0,1560.0
43668,3143.0,1532.0,1176.0
43669,3143.0,1532.0,1176.0
43670,3143.0,1532.0,1176.0
43671,3143.0,1532.0,1176.0
43672,3143.0,763.0,1176.0
43673,3143.0,763.0,1176.0
43674,3143.0,763.0,1176.0
43675,3143.0,763.0,1176.0
43676,2226.0,763.0,1176.0
43677,2226.0,763.0,1176.0
43678,2226.0,1608.0,1176.0
43679,2226.0,1608.0,1176.0
43680,2226.0,1608.0,1176.0
43681,2226.0,1608.0,1176.0
43682,2226.0,1608.0,1176.0
43683,2226.0,1608.0,1176.0
43684,2226.0,1608.0,1176.0
43685,2226.0,1608.0,1176.0
43686,2226.0,1608.0,1176.0
43687,2226.0,1608.0,1176.0
43688,2226.0,1491.0,1176.0
43689,2226.0,1491.0,1176.0
43690,2226.0,1491.0,1176.0
43691,2226.0,1491.0,1176.0
43692,2226.0,1491.0,1176.0
43693,2226.0,1491.0,566.0
43694,2226.0,1491.0,566.0
43695,2226.0,1491.0,1044.0
43696,2226.0,1491.0,1044.0
43697,2226.0,1491.0,1579.0
43698,2226.0,1491.0,1579.0
43699,2226.0,1491.0,901.0
43700,2226.0,1491.0,901.0
43701,2226.0,1491.0,620.0
43702,2226.0,1491.0,620.0
43703,2226.0,1491.0,991.0
43704,2226.0,1491.0,991.0
43705,2226.0,1491.0,991.0
43706,2226.0,1491.0,1002.0
43707,2226.0,1491.0,1002.0
43708,2226.0,1491.0,661.0
43709,2226.0,1491.0,661.0
43710,2226.0,1491.0,888.0
43711,2226.0,1491.0,888.0
43712,2226.0,1491.0,888.0
43713,2226.0,1491.0,888.0
43714,2226.0,1620.0,888.0
43715,2226.0,1620.0,888.0
43716,2226.0,1487.0,888.0
43717,2226.0,1487.0,888.0
43718,2226.0,1487.0,888.0
43719,2226.0,1487.0,888.0
43720,2226.0,1487.0,888.0
43721,2226.0,1487.0,888.0
43722,2226.0,1487.0,888.0
43723,2226.0,1487.0,888.0
43724,2226.0,1487.0,888.0
43725,2226.0,1487.0,888.0
43726,2226.0,2488.0,888.0
43727,2226.0,2488.0,888.0
43728,2226.0,2488.0,888.0
43729,2226.0,2488.0,888.0
43730,2226.0,2488.0,888.0
43731,2226.0,2488.0,888.0
43732,2226.0,848.0,509.0
43733,2226.0,848.0,509.0
43734,2226.0,848.0,509.0
43735,2226.0,848.0,509.0
43736,2226.0,848.0,509.0
43737,2226.0,848.0,509.0
43738,2226.0,848.0,509.0
43739,2226.0,848.0,509.0
43740,2226.0,3443.0,509.0
43741,2226.0,3443.0,509.0
43742,2226.0,1459.0,509.0
43743,2226.0,1459.0,509.0
43744,2226.0,1686.0,509.0
43745,2226.0,1686.0,509.0
43746,2226.0,1686.0,711.0
43747,2226.0,2074.0,711.0
43748,2226.0,2074.0,711.0
45547,1819.0,2227.0,988.0
45548,1819.0,2227.0,988.0
45549,1819.0,2227.0,903.0
45550,1819.0,2227.0,903.0
45551,1819.0,2227.0,903.0
45552,458.0,2227.0,903.0
45553,458.0,2227.0,903.0
45554,1577.0,2227.0,903.0
45555,1577.0,2227.0,903.0
45556,1577.0,2227.0,903.0
45557,1577.0,2227.0,903.0
45558,1577.0,2227.0,903.0
45559,1577.0,2227.0,842.0
45560,1577.0,2227.0,842.0
45561,1577.0,2227.0,842.0
45562,1577.0,2227.0,842.0
45563,1577.0,2227.0,842.0
45564,1577.0,2227.0,842.0
45565,1577.0,2227.0,842.0
45566,1577.0,2227.0,456.0
45567,1577.0,2227.0,456.0
45568,1577.0,2227.0,932.0
45569,1577.0,2227.0,932.0
45570,1577.0,2227.0,932.0
45571,1577.0,2227.0,932.0
45572,1577.0,2227.0,932.0
45573,1577.0,2227.0,932.0
45574,1577.0,2227.0,1251.0
45575,1577.0,2227.0,1251.0
45576,1577.0,2227.0,1251.0
45577,47.0,2227.0,1251.0
45578,1571577.0,2227.0,1251.0
45579,1577.0,2227.0,1251.0
45580,1577.0,2227.0,1251.0
45581,1577.0,2227.0,1251.0
45582,1577.0,2227.0,1251.0
45583,1577.0,2227.0,1251.0
45584,1577.0,2227.0,1251.0
45585,1577.0,2227.0,1251.0
45586,1577.0,2227.0,1251.0
45587,1577.0,2227.0,1251.0
45588,1577.0,2227.0,1251.0
45589,1577.0,2227.0,1251.0
45590,1743.0,2227.0,1251.0
45591,1743.0,2227.0,1251.0
45592,1743.0,2227.0,1251.0
45593,1743.0,2227.0,1251.0
45594,1743.0,2227.0,226.0
45595,1743.0,2227.0,196.0
45596,1743.0,2227.0,196.0
45597,1743.0,2227.0,196.0
45598,1743.0,2227.0,196.0
45599,2342.0,2227.0,456.0
45600,2138.0,2227.0,456.0
45601,2138.0,2227.0,456.0
45602,2138.0,2227.0,456.0
45603,2138.0,2227.0,456.0
45604,2138.0,2227.0,456.0
45605,2138.0,2227.0,456.0
45606,2138.0,2227.0,1229.0
45607,2138.0,2227.0,1229.0
45608,2138.0,2227.0,1229.0
45609,2138.0,2227.0,1229.0
45610,2138.0,2227.0,1229.0
45611,2138.0,2227.0,1229.0
45612,2138.0,2227.0,1229.0
45613,2138.0,2227.0,1229.0
45614,2138.0,2227.0,1229.0
45615,2138.0,2227.0,1229.0
45616,2138.0,2227.0,1229.0
45617,2138.0,2227.0,1229.0
45618,2138.0,2227.0,1229.0
45619,2138.0,2227.0,1229.0
45620,2138.0,2227.0,460.0
45621,2138.0,2227.0,460.0
45622,2138.0,2227.0,350.0
45623,2138.0,2227.0,350.0
45624,2138.0,2227.0,350.0
45625,2138.0,2227.0,350.0
45626,2138.0,2227.0,350.0
45627,2138.0,2227.0,350.0
45628,2138.0,2227.0,350.0
45629,2138.0,2227.0,350.0
45630,2138.0,2227.0,350.0
45631,2138.0,2227.0,350.0
45632,2138.0,2227.0,350.0
45633,2160.0,2227.0,350.0
45634,2160.0,1881.0,350.0
45635,2160.0,1881.0,350.0
45636,2160.0,1881.0,350.0
45637,2160.0,1881.0,350.0
45638,2160.0,1881.0,350.0
45639,2160.0,1881.0,350.0
45640,2160.0,1881.0,350.0
45641,2160.0,1881.0,350.0
45642,2160.0,1881.0,350.0
45643,2160.0,1881.0,350.0
45644,1463.0,1881.0,350.0
45645,1463.0,1881.0,350.0
45646,2528.0,1881.0,350.0
45647,2528.0,1894.0,350.0
45648,1801.0,1894.0,350.0
45649,1801.0,1894.0,350.0
45650,1801.0,1894.0,350.0
45651,1801.0,1894.0,350.0
45652,1801.0,1894.0,350.0
45653,1801.0,1894.0,350.0
45654,1801.0,1894.0,350.0
45655,1801.0,1894.0,350.0
45656,1801.0,1894.0,350.0
45657,1801.0,1894.0,350.0
45658,1801.0,1894.0,350.0
45659,1801.0,1894.0,350.0
45660,2801.0,1894.0,350.0
45661,11801.0,1894.0,350.0
45662,1801.0,1894.0,350.0
45663,1801.0,1894.0,350.0
45664,1801.0,1894.0,350.0
45665,1801.0,1894.0,350.0
45666,1801.0,1894.0,350.0
45667,1801.0,1894.0,350.0
45668,1801.0,1894.0,350.0
45669,1801.0,1894.0,350.0
45670,1801.0,1894.0,350.0
45671,1801.0,1894.0,350.0
45672,1801.0,1894.0,350.0
45673,1801.0,1894.0,350.0
45674,1801.0,1894.0,350.0
45675,1801.0,1894.0,350.0
45676,1893.0,1894.0,350.0
45677,1893.0,1894.0,350.0
45678,1893.0,1894.0,350.0
45679,1893.0,1894.0,350.0
45680,1893.0,1894.0,350.0
45681,1893.0,1894.0,350.0
45682,1893.0,1894.0,350.0
45683,1893.0,1894.0,350.0
45684,1893.0,1894.0,350.0
45685,1893.0,1894.0,350.0
47289,483.0,1397.0,118.0
47290,483.0,1397.0,118.0
47291,483.0,1397.0,118.0
47292,483.0,1397.0,118.0
47293,483.0,1397.0,118.0
47294,483.0,1397.0,118.0
47295,483.0,1397.0,118.0
47296,483.0,1397.0,118.0
47297,483.0,1397.0,118.0
47298,483.0,1397.0,118.0
47299,483.0,495.0,118.0
47300,483.0,885.0,118.0
47301,483.0,885.0,118.0
47302,483.0,885.0,118.0
47303,483.0,885.0,128.0
47304,483.0,885.0,218.0
47305,483.0,885.0,218.0
47306,483.0,885.0,218.0
47307,483.0,885.0,185.0
47308,483.0,885.0,185.0
47309,743.0,885.0,185.0
47310,743.0,885.0,185.0
47311,743.0,552.0,185.0
47312,743.0,552.0,185.0
47313,743.0,552.0,294.0
47314,743.0,552.0,294.0
47315,743.0,552.0,294.0
47316,743.0,552.0,79.0
47317,743.0,552.0,79.0
47318,743.0,552.0,229.0
47319,743.0,552.0,158.0
47320,743.0,552.0,206.0
47321,743.0,552.0,206.0
47322,743.0,552.0,197.0
47323,743.0,552.0,197.0
47324,743.0,552.0,197.0
47325,74343.0,552.0,197.0
47326,743.0,552.0,197.0
47327,743.0,552.0,197.0
47328,743.0,552.0,197.0
47329,743.0,552.0,115.0
47330,743.0,552.0,115.0
47331,743.0,552.0,115.0
47332,743.0,552.0,115.0
47333,401.0,552.0,115.0
47334,401.0,552.0,115.0
47335,401.0,552.0,115.0
47336,401.0,552.0,115.0
47337,753.0,552.0,115.0
47338,7500.0,552.0,115.0
47339,753.0,552.0,115.0
47340,753.0,552.0,115.0
47341,753.0,552.0,115.0
47342,753.0,552.0,115.0
47343,753.0,552.0,115.0
47344,1025.0,552.0,115.0
47345,1025.0,552.0,115.0
47346,362.0,552.0,115.0
47347,362.0,552.0,115.0
47348,362.0,552.0,115.0
47349,362.0,552.0,115.0
47350,362.0,552.0,115.0
47351,362.0,552.0,115.0
47352,362.0,552.0,115.0
47353,329.0,552.0,115.0
47354,329.0,552.0,115.0
47355,360.0,552.0,115.0
47356,360.0,559.0,115.0
47357,375.0,559.0,115.0
47358,375.0,559.0,115.0
47359,375.0,559.0,115.0
47360,375.0,559.0,115.0
47361,502.0,559.0,115.0
47362,502.0,559.0,115.0
47363,989.0,559.0,115.0
47364,989.0,559.0,115.0
47365,989.0,559.0,115.0
47366,433.0,559.0,115.0
47367,433.0,559.0,115.0
47368,433.0,559.0,115.0
47369,433.0,559.0,115.0
47370,433.0,559.0,115.0
47371,433.0,559.0,115.0
47372,535.0,559.0,115.0
47373,535.0,559.0,240.0
47374,535.0,995.0,240.0
47375,535.0,995.0,240.0
47376,535.0,995.0,240.0
47377,673.0,995.0,240.0
47378,673.0,995.0,240.0
47379,250.0,995.0,240.0
47380,250.0,803.0,240.0
47381,250.0,803.0,240.0
47382,700.0,803.0,240.0
47383,250.0,803.0,240.0
47384,250.0,803.0,240.0
47385,250.0,803.0,240.0
47386,250.0,803.0,240.0
47387,250.0,803.0,240.0
47388,250.0,803.0,240.0
47389,250.0,803.0,240.0
47390,416.0,803.0,240.0
47391,416.0,803.0,240.0
47392,465.0,803.0,240.0
47393,465.0,803.0,240.0
47394,545.0,803.0,240.0
47395,545.0,803.0,240.0
47396,545.0,803.0,240.0
47397,545.0,803.0,240.0
47398,545.0,803.0,240.0
47399,545.0,803.0,240.0
47400,576.0,803.0,240.0
47401,576.0,803.0,240.0
47402,576.0,803.0,240.0
47403,576.0,803.0,240.0
47404,576.0,803.0,240.0
47405,576.0,803.0,240.0
47406,576.0,803.0,240.0
47407,576.0,803.0,240.0
47408,576.0,803.0,240.0
47409,576.0,803.0,298.0
47410,576.0,803.0,104.0
47411,576.0,803.0,342.0
47412,576.0,803.0,342.0
47413,576.0,803.0,156.0
47414,576.0,803.0,255.0
47415,576.0,803.0,255.0
47416,576.0,803.0,255.0
47417,576.0,824.0,255.0
47418,576.0,824.0,255.0
48735,933.0,131.0,263.0
48736,933.0,140.0,263.0
48737,933.0,140.0,263.0
48738,933.0,337.0,263.0
48739,933.0,122.0,263.0
48740,933.0,213.0,263.0
48741,933.0,267.0,263.0
48742,933.0,267.0,263.0
48743,1911.0,267.0,263.0
48744,1911.0,267.0,263.0
48745,1911.0,267.0,263.0
48746,1911.0,267.0,263.0
48747,1911.0,267.0,263.0
48748,1911.0,267.0,263.0
48749,1911.0,267.0,263.0
48750,1911.0,267.0,532.0
48751,1911.0,267.0,532.0
48752,1911.0,267.0,532.0
48753,1911.0,267.0,532.0
48754,1911.0,267.0,532.0
48755,1911.0,267.0,532.0
48756,1911.0,267.0,532.0
48757,689.0,267.0,532.0
48758,689.0,267.0,532.0
48759,689.0,267.0,532.0
48760,689.0,267.0,532.0
48761,689.0,267.0,532.0
48762,689.0,206.0,532.0
48763,689.0,206.0,532.0
48764,689.0,206.0,532.0
48765,689.0,206.0,532.0
48766,689.0,206.0,532.0
48767,689.0,206.0,532.0
48768,689.0,206.0,532.0
48769,689.0,206.0,532.0
48770,689.0,206.0,532.0
48771,689.0,163.0,532.0
48772,689.0,163.0,532.0
48773,689.0,475.0,532.0
48774,689.0,475.0,532.0
48775,689.0,475.0,532.0
48776,689.0,475.0,532.0
48777,689.0,475.0,532.0
48778,689.0,475.0,532.0
48779,689.0,475.0,532.0
48780,689.0,475.0,532.0
48781,689.0,437.0,532.0
48782,689.0,437.0,532.0
48783,689.0,288.0,532.0
48784,689.0,341.0,532.0
48785,689.0,341.0,532.0
48786,689.0,359.0,532.0
48787,689.0,359.0,532.0
48788,689.0,333.0,532.0
48789,689.0,333.0,532.0
48790,689.0,333.0,532.0
48791,689.0,333.0,532.0
48792,689.0,333.0,532.0
48793,689.0,333.0,532.0
48794,689.0,333.0,532.0
48795,803.0,333.0,532.0
48796,803.0,333.0,532.0
48797,803.0,333.0,532.0
48798,803.0,45.0,532.0
48799,803.0,45.0,532.0
48800,803.0,45.0,532.0
48801,803.0,45.0,532.0
48802,803.0,45.0,532.0
48803,803.0,45.0,532.0
48804,803.0,245.0,532.0
48805,803.0,245.0,532.0
48806,803.0,245.0,532.0
48807,803.0,245.0,532.0
48808,803.0,245.0,532.0
48809,803.0,245.0,532.0
48810,803.0,245.0,532.0
48811,1114.0,245.0,532.0
48812,1114.0,245.0,532.0
48813,1114.0,245.0,532.0
48814,1169.0,245.0,532.0
48815,169.0,245.0,532.0
48816,1169.0,245.0,532.0
48817,1169.0,245.0,532.0
48818,1145.0,245.0,532.0
48819,1145.0,245.0,532.0
48820,1145.0,121.0,532.0
48821,1145.0,121.0,532.0
48822,1145.0,121.0,532.0
48823,1145.0,121.0,532.0
48824,1145.0,121.0,532.0
48825,1145.0,121.0,532.0
48826,1145.0,180.0,532.0
48827,1145.0,180.0,532.0
48828,1145.0,180.0,532.0
48829,1145.0,180.0,532.0
48830,1145.0,180.0,532.0
48831,1145.0,180.0,532.0
48832,1145.0,180.0,532.0
48833,1145.0,180.0,532.0
48834,1145.0,180.0,532.0
48835,1145.0,180.0,532.0
48836,1145.0,180.0,532.0
48837,1145.0,180.0,532.0
48838,1145.0,180.0,532.0
48839,1145.0,180.0,532.0
48840,1145.0,180.0,532.0
48841,1145.0,180.0,532.0
48842,1145.0,180.0,532.0
48843,1145.0,180.0,532.0
48844,1145.0,232.0,532.0
48845,1145.0,232.0,532.0
48846,8145.0,172.0,532.0
48847,11145.0,172.0,532.0
48848,1145.0,172.0,532.0
48849,1145.0,172.0,532.0
48850,1145.0,172.0,532.0
48851,1145.0,172.0,532.0
48852,1145.0,172.0,532.0
48853,1145.0,172.0,532.0
48854,1145.0,172.0,532.0
48855,1145.0,172.0,532.0
48856,1145.0,172.0,532.0
48857,1145.0,341.0,532.0
48858,1145.0,292.0,532.0
48859,1145.0,292.0,532.0
48860,1145.0,363.0,532.0
48861,1145.0,363.0,532.0
48862,1145.0,107.0,532.0
48863,1145.0,107.0,532.0
48864,1145.0,107.0,532.0
48865,1145.0,107.0,532.0
48866,1145.0,107.0,532.0
48867,1145.0,107.0,532.0
48868,1145.0,107.0,532.0
48869,1145.0,107.0,532.0
48870,1145.0,107.0,532.0
48871,1145.0,107.0,532.0
48872,1145.0,107.0,532.0
48873,1145.0,107.0,532.0
48874,1145.0,107.0,532.0
48875,1145.0,107.0,532.0
48876,1145.0,280.0,532.0
48877,1145.0,164.0,532.0
48878,1145.0,164.0,532.0
48879,1145.0,164.0,532.0
50233,870.0,780.0,593.0
50234,870.0,892.0,593.0
50235,870.0,892.0,593.0
50236,870.0,1447.0,593.0
50237,870.0,1447.0,593.0
50238,870.0,1447.0,593.0
50239,870.0,1447.0,593.0
50240,870.0,1447.0,593.0
50241,870.0,1201.0,593.0
50242,870.0,1201.0,593.0
50243,1092.0,1201.0,593.0
50244,937.0,1201.0,593.0
50245,937.0,1201.0,593.0
50246,937.0,1201.0,593.0
50247,800.0,1014.0,593.0
50248,599.0,1014.0,593.0
50249,599.0,1014.0,593.0
50250,599.0,856.0,593.0
50251,599.0,856.0,593.0
50252,599.0,856.0,593.0
50253,599.0,856.0,593.0
50254,599.0,856.0,593.0
50255,599.0,856.0,593.0
50256,599.0,856.0,593.0
50257,599.0,856.0,593.0
50258,599.0,856.0,593.0
50259,599.0,856.0,593.0
50260,599.0,856.0,593.0
50261,599.0,856.0,593.0
50262,599.0,856.0,593.0
50263,599.0,856.0,593.0
50264,599.0,856.0,593.0
50265,599.0,856.0,593.0
50266,599.0,856.0,593.0
50267,599.0,856.0,593.0
50268,599.0,856.0,593.0
50269,599.0,856.0,593.0
50270,599.0,856.0,593.0
50271,599.0,856.0,593.0
50272,599.0,856.0,593.0
50273,599.0,899.0,593.0
50274,599.0,899.0,593.0
50275,1040.0,423.0,593.0
50276,1040.0,423.0,593.0
50277,1185.0,423.0,593.0
50278,588.0,423.0,593.0
50279,588.0,423.0,271.0
50280,588.0,423.0,271.0
50281,588.0,423.0,271.0
50282,588.0,1250.0,271.0
50283,588.0,1250.0,271.0
50284,588.0,905.0,271.0
50285,588.0,905.0,271.0
50286,966.0,905.0,271.0
50287,930.0,905.0,271.0
50288,930.0,837.0,271.0
50289,930.0,837.0,271.0
50290,1044.0,1368.0,271.0
50291,1044.0,1368.0,271.0
50292,682.0,1368.0,271.0
50293,1448.0,1368.0,271.0
50294,1448.0,1368.0,271.0
50295,1448.0,1368.0,271.0
50296,583.0,1368.0,271.0
50297,1080.0,1368.0,271.0
50298,743.0,1368.0,585.0
50299,743.0,793.0,585.0
50300,743.0,701.0,585.0
50301,743.0,701.0,585.0
50302,743.0,701.0,585.0
50303,743.0,701.0,585.0
50304,743.0,701.0,585.0
50305,152.0,701.0,585.0
50306,731.0,701.0,585.0
50307,914.0,701.0,585.0
50308,914.0,701.0,585.0
50309,914.0,1226.0,585.0
50310,914.0,1252.0,585.0
50311,914.0,1252.0,585.0
50312,914.0,933.0,585.0
50313,914.0,933.0,585.0
50314,914.0,933.0,585.0
50315,914.0,933.0,585.0
50316,914.0,933.0,585.0
50317,914.0,933.0,585.0
50318,914.0,933.0,585.0
50319,1402.0,933.0,585.0
50320,753.0,933.0,585.0
50321,753.0,933.0,585.0
50322,501.0,933.0,585.0
50323,501.0,933.0,585.0
50324,501.0,933.0,585.0
50325,503.0,933.0,585.0
50326,503.0,933.0,585.0
50327,503.0,933.0,585.0
50328,503.0,933.0,585.0
50329,503.0,199.0,585.0
50330,503.0,199.0,585.0
50331,503.0,199.0,585.0
50332,1372.0,1204.0,585.0
50333,1372.0,1204.0,585.0
50334,1000.0,990.0,585.0
50335,1000.0,990.0,585.0
50336,963.0,990.0,585.0
50337,963.0,990.0,585.0
50338,963.0,990.0,585.0
50339,963.0,990.0,585.0
50340,963.0,990.0,585.0
50341,963.0,990.0,585.0
50342,963.0,990.0,585.0
50343,963.0,990.0,585.0
50344,963.0,990.0,585.0
50345,963.0,990.0,585.0
50346,963.0,990.0,585.0
50347,963.0,990.0,585.0
50348,963.0,990.0,585.0
50349,963.0,990.0,585.0
50350,963.0,687.0,585.0
50351,963.0,687.0,585.0
50352,963.0,687.0,585.0
50353,963.0,687.0,585.0
50354,963.0,1053.0,585.0
50355,2434.0,1053.0,585.0
50356,2434.0,1053.0,161.0
50357,2434.0,1053.0,161.0
50358,1446.0,1053.0,161.0
50359,1446.0,1053.0,161.0
50360,1446.0,1053.0,161.0
50361,1446.0,1053.0,161.0
50362,1446.0,1053.0,161.0
50363,1446.0,1053.0,161.0
50364,1446.0,1053.0,502.0
50365,1446.0,1053.0,151.0
50366,1446.0,1053.0,151.0
50367,1446.0,1053.0,151.0
50368,462.0,1053.0,151.0
50369,462.0,1053.0,151.0
50370,881.0,1053.0,151.0
50371,958.0,1053.0,151.0
50372,958.0,1053.0,151.0
50373,958.0,1053.0,151.0
50374,958.0,1053.0,151.0
50375,958.0,1053.0,151.0
50376,958.0,1053.0,151.0
50377,958.0,1053.0,151.0
50378,958.0,1053.0,151.0
50379,958.0,1053.0,252.0
50380,958.0,1053.0,252.0
50381,958.0,1053.0,252.0
50382,958.0,1053.0,252.0
50383,1292.0,1053.0,252.0
50384,540.0,1053.0,252.0
50385,540.0,1053.0,252.0
56478,640.0,1139.0,2844.0
56479,640.0,1139.0,2844.0
56480,640.0,1139.0,2844.0
56481,640.0,1139.0,2844.0
56482,640.0,1139.0,2844.0
56483,640.0,1139.0,2844.0
56484,1654.0,1139.0,2844.0
56485,886.0,1139.0,2844.0
56486,886.0,1139.0,2844.0
56487,886.0,1139.0,2844.0
56488,886.0,1139.0,2844.0
56489,1529.0,1139.0,2844.0
56490,1529.0,1139.0,2844.0
56491,1125.0,1139.0,2844.0
56492,1125.0,1139.0,2844.0
56493,1125.0,1139.0,2385.0
56494,1125.0,1220.0,2385.0
56495,1125.0,348.0,2385.0
56496,1125.0,348.0,2385.0
56497,1125.0,348.0,2385.0
56498,2479.0,348.0,2385.0
56499,2479.0,348.0,2385.0
56500,1887.0,348.0,2385.0
56501,1887.0,348.0,2385.0
56502,2309.0,348.0,2385.0
56503,2309.0,348.0,2385.0
56504,2309.0,348.0,2385.0
56505,2309.0,348.0,2385.0
56506,1655.0,348.0,2385.0
56507,1655.0,702.0,2385.0
56508,1655.0,702.0,2385.0
56509,1655.0,498.0,2385.0
56510,1655.0,498.0,3081.0
56511,1655.0,498.0,3081.0
56512,1655.0,498.0,3081.0
56513,2477.0,498.0,3081.0
56514,2477.0,498.0,1351.0
56515,2477.0,498.0,1627.0
56516,2477.0,498.0,3445.0
56517,2477.0,498.0,2320.0
56518,2477.0,498.0,2320.0
56519,2477.0,498.0,2111.0
56520,240.0,498.0,2111.0
56521,2477.0,498.0,2111.0
56522,1837.0,498.0,2111.0
56523,1837.0,498.0,2111.0
56524,1374.0,498.0,2111.0
56525,1374.0,498.0,5581.0
56526,1374.0,948.0,5581.0
56527,1374.0,948.0,5581.0
56528,1374.0,948.0,5581.0
56529,1374.0,948.0,5581.0
56530,1374.0,948.0,2104.0
56531,1374.0,948.0,3390.0
56532,1374.0,948.0,1486.0
56533,1374.0,948.0,1486.0
56534,1551.0,1339.0,1486.0
56535,1551.0,1339.0,1634.0
56536,1551.0,1339.0,2564.0
56537,1551.0,1339.0,4887.0
56538,1551.0,846.0,4887.0
56539,1551.0,846.0,4887.0
56540,1551.0,846.0,4887.0
56541,1551.0,846.0,4887.0
56542,1551.0,846.0,4887.0
56543,1551.0,846.0,4887.0
56544,2162.0,731.0,4887.0
56545,2162.0,731.0,3117.0
56546,2162.0,731.0,1783.0
56547,2162.0,731.0,3021.0
56548,2.0,731.0,3021.0
56549,1120.0,731.0,4861.0
56550,1987.0,731.0,4861.0
56551,663.0,731.0,4861.0
56552,663.0,731.0,4861.0
56553,663.0,731.0,4861.0
56554,663.0,731.0,4861.0
56555,663.0,731.0,4861.0
56556,663.0,731.0,4861.0
56557,663.0,731.0,4861.0
56558,1858.0,731.0,4861.0
56559,1858.0,172.0,4861.0
56560,1858.0,565.0,4861.0
56561,1858.0,565.0,4861.0
56562,1858.0,679.0,4861.0
56563,1858.0,679.0,4861.0
56564,1858.0,679.0,4861.0
56565,1858.0,679.0,4861.0
56566,1858.0,885.0,4861.0
56567,1858.0,885.0,4861.0
56568,1858.0,1454.0,2788.0
56569,1858.0,1454.0,2788.0
56570,1858.0,1454.0,1403.0
56571,1858.0,1454.0,1403.0
56572,1858.0,1454.0,1403.0
56573,1858.0,1454.0,1093.0
56574,1858.0,1454.0,2665.0
56575,1858.0,1454.0,5264.0
56576,1858.0,1454.0,5264.0
56577,1858.0,1454.0,2150.0
56578,1858.0,1454.0,2150.0
56579,1858.0,1454.0,2150.0
56580,1858.0,1454.0,2150.0
56581,1858.0,1454.0,2150.0
56582,1858.0,1454.0,1976.0
56583,1858.0,1454.0,1976.0
56584,1471.0,1454.0,1655.0
56585,1471.0,1454.0,1655.0
56586,1471.0,1454.0,3710.0
56587,1471.0,1454.0,2245.0
56588,2103.0,1454.0,2245.0
56589,2103.0,822.0,2245.0
56590,2103.0,822.0,2245.0
56591,2103.0,822.0,2245.0
56592,2103.0,822.0,1755.0
56593,2103.0,822.0,1755.0
56594,926.0,822.0,1755.0
56595,926.0,822.0,1190.0
56596,926.0,822.0,4048.0
56597,926.0,822.0,4048.0
56598,926.0,822.0,4048.0
56599,1476.0,822.0,4048.0
56600,9226.0,822.0,4048.0
56601,926.0,1066.0,4048.0
56602,926.0,1066.0,4048.0
56603,926.0,1066.0,1955.0
56604,926.0,1066.0,1955.0
56605,926.0,1066.0,1955.0
56606,926.0,809.0,1955.0
56607,926.0,809.0,1955.0
56608,926.0,809.0,1955.0
58315,1136.0,759.0,1660.0
58316,1136.0,759.0,1660.0
58317,1136.0,759.0,1660.0
58318,1136.0,759.0,1660.0
58319,1136.0,759.0,1660.0
58320,1136.0,759.0,1660.0
58321,1136.0,759.0,1660.0
58322,1136.0,759.0,2498.0
58323,1136.0,759.0,1874.0
58324,1136.0,759.0,1659.0
58325,1136.0,759.0,3152.0
58326,1136.0,759.0,3152.0
58327,1136.0,759.0,2934.0
58328,1136.0,759.0,3061.0
58329,1136.0,759.0,2051.0
58330,1136.0,759.0,2798.0
58331,1136.0,759.0,2798.0
58332,1136.0,759.0,1574.0
58333,1136.0,759.0,1574.0
58334,1136.0,759.0,2188.0
58335,1136.0,759.0,2002.0
58336,1136.0,759.0,2333.0
58337,1136.0,759.0,3963.0
58338,11136.0,1441.0,3963.0
58339,1900.0,1441.0,1485.0
58340,1900.0,1441.0,1485.0
58341,3671.0,1441.0,1485.0
58342,3671.0,1441.0,1485.0
58343,1041.0,1441.0,1485.0
58344,1041.0,1441.0,1485.0
58345,1041.0,1441.0,3173.0
58346,1041.0,1441.0,3173.0
58347,1041.0,1441.0,3173.0
58348,1041.0,1441.0,3173.0
58349,1041.0,559.0,3173.0
58350,1041.0,559.0,3173.0
58351,1041.0,559.0,3173.0
58352,1041.0,559.0,3173.0
58353,1041.0,559.0,1934.0
58354,1041.0,559.0,1934.0
58355,1041.0,559.0,1250.0
58356,1041.0,589.0,1250.0
58357,1041.0,589.0,1250.0
58358,1041.0,966.0,1250.0
58359,1041.0,966.0,3063.0
58360,1041.0,966.0,1605.0
58361,1041.0,966.0,1605.0
58362,1188.0,966.0,1605.0
58363,1188.0,966.0,1605.0
58364,1188.0,966.0,1605.0
58365,1188.0,357.0,1605.0
58366,1188.0,656.0,1605.0
58367,1188.0,656.0,1605.0
58368,1188.0,656.0,1605.0
58369,1688.0,656.0,1605.0
58370,11188.0,656.0,2504.0
58371,1188.0,504.0,2504.0
58372,1188.0,504.0,1792.0
58373,1188.0,1328.0,2189.0
58374,1188.0,1328.0,2189.0
58375,1188.0,1328.0,4333.0
58376,1188.0,1328.0,4333.0
58377,1188.0,1328.0,1697.0
58378,1188.0,1328.0,1697.0
58379,1.0,1328.0,1697.0
58380,1188.0,567.0,1697.0
58381,1188.0,567.0,1697.0
58382,1188.0,694.0,1697.0
58383,1188.0,694.0,1697.0
58384,1188.0,694.0,1697.0
58385,1188.0,694.0,3626.0
58386,1188.0,694.0,3626.0
58387,1188.0,694.0,3626.0
58388,1188.0,694.0,3626.0
58389,1188.0,694.0,3626.0
58390,1188.0,694.0,3626.0
58391,1188.0,694.0,3626.0
58392,1188.0,694.0,3626.0
58393,1188.0,694.0,3626.0
58394,1188.0,694.0,3626.0
58395,1188.0,624.0,3626.0
58396,1188.0,624.0,3626.0
58397,1188.0,624.0,3626.0
58398,1188.0,624.0,3626.0
58399,1188.0,624.0,3626.0
58400,1188.0,624.0,3626.0
58401,1188.0,624.0,3626.0
58402,1188.0,624.0,3626.0
58403,1188.0,769.0,3626.0
58404,1188.0,769.0,3626.0
58405,1188.0,769.0,3626.0
58406,1188.0,769.0,3626.0
58407,1188.0,823.0,3626.0
58408,1188.0,823.0,3626.0
58409,1188.0,823.0,3626.0
58410,1188.0,823.0,3626.0
58411,1188.0,823.0,3626.0
58412,1188.0,847.0,3626.0
58413,1188.0,847.0,3626.0
58414,1188.0,693.0,3626.0
58415,1188.0,693.0,3626.0
58416,1188.0,693.0,1601.0
58417,1188.0,693.0,1601.0
58418,1188.0,693.0,1892.0
58419,1188.0,693.0,1892.0
58420,1188.0,693.0,1892.0
58421,1188.0,693.0,2989.0
58422,1188.0,693.0,2989.0
58423,1188.0,693.0,2989.0
58424,1188.0,693.0,2989.0
58425,1188.0,304.0,2989.0
58426,1188.0,304.0,2989.0
58427,1188.0,304.0,2989.0
58428,1188.0,304.0,2989.0
58429,1188.0,304.0,2989.0
58430,1188.0,304.0,2989.0
58431,1188.0,304.0,2989.0
58432,1188.0,304.0,2989.0
58433,1188.0,304.0,2989.0
58434,1188.0,304.0,2989.0
58435,1188.0,304.0,2989.0
58436,1188.0,304.0,3674.0
58437,1188.0,304.0,3674.0
58438,1188.0,304.0,1068.0
58439,1188.0,304.0,1068.0
58440,1188.0,304.0,1068.0
58441,1188.0,304.0,1068.0
58442,1188.0,304.0,1068.0
58443,1188.0,304.0,1068.0
58444,1188.0,304.0,1068.0
58445,1188.0,304.0,1068.0
58446,1188.0,304.0,1068.0
58447,1188.0,304.0,1068.0
58448,1188.0,304.0,1068.0
58449,1188.0,304.0,1068.0
58450,1188.0,304.0,1068.0
58451,1188.0,304.0,1068.0
58452,1188.0,304.0,1068.0
60007,2272.0,1521.0,4055.0
60008,2272.0,1521.0,4055.0
60009,2272.0,1521.0,4055.0
60010,2388.0,1194.0,4055.0
60011,2388.0,1745.0,4055.0
60012,2388.0,1745.0,4055.0
60013,2388.0,2311.0,4055.0
60014,2388.0,2311.0,4055.0
60015,2388.0,2311.0,4055.0
60016,2388.0,2311.0,4055.0
60017,2388.0,2311.0,4055.0
60018,2388.0,2311.0,4055.0
60019,2388.0,2311.0,4055.0
60020,2388.0,2311.0,4055.0
60021,2388.0,2311.0,4055.0
60022,2388.0,2311.0,4055.0
60023,2388.0,2311.0,4055.0
60024,2388.0,2311.0,4055.0
60025,2388.0,2311.0,4055.0
60026,2388.0,2311.0,4055.0
60027,2696.0,2311.0,4055.0
60028,2696.0,2311.0,4055.0
60029,2696.0,2311.0,4055.0
60030,2696.0,2311.0,4055.0
60031,2696.0,2311.0,4055.0
60032,2696.0,2311.0,4055.0
60033,2696.0,2311.0,4055.0
60034,2696.0,2311.0,4055.0
60035,2696.0,2311.0,2292.0
60036,2696.0,2311.0,2292.0
60037,2696.0,2311.0,1850.0
60038,2696.0,2311.0,1850.0
60039,2696.0,2311.0,1850.0
60040,2696.0,2311.0,1850.0
60041,2696.0,2311.0,1850.0
60042,2696.0,2311.0,1850.0
60043,2696.0,2311.0,1850.0
60044,2696.0,2311.0,1850.0
60045,2696.0,2311.0,1605.0
60046,2696.0,2311.0,1605.0
60047,2696.0,2311.0,1605.0
60048,2696.0,2311.0,1605.0
60049,2696.0,2311.0,1605.0
60050,2696.0,2311.0,1605.0
60051,2696.0,2311.0,1605.0
60052,2696.0,2311.0,1605.0
60053,2696.0,2311.0,1605.0
60054,2696.0,2311.0,1605.0
60055,696.0,2311.0,1605.0
60056,2696.0,2311.0,1605.0
60057,2696.0,2311.0,1605.0
60058,2696.0,2311.0,1605.0
60059,2696.0,2311.0,2508.0
60060,2696.0,2311.0,2508.0
60061,2696.0,2311.0,2508.0
60062,2701.0,2311.0,2508.0
60063,2701.0,2311.0,2508.0
60064,2701.0,1659.0,2508.0
60065,2701.0,1659.0,2508.0
60066,2701.0,1659.0,2508.0
60067,2701.0,1659.0,2508.0
60068,1385.0,1659.0,2508.0
60069,1385.0,1659.0,2508.0
60070,1385.0,1659.0,2596.0
60071,1385.0,1659.0,2596.0
60072,1385.0,1659.0,2596.0
60073,1385.0,1659.0,1647.0
60074,1385.0,1659.0,1647.0
60075,1385.0,1659.0,1647.0
60076,1385.0,1659.0,1647.0
60077,2628.0,1659.0,1647.0
60078,2628.0,1659.0,1647.0
60079,2628.0,1659.0,1647.0
60080,2628.0,1659.0,1647.0
60081,2628.0,1659.0,1647.0
60082,2628.0,1659.0,1647.0
60083,2242.0,1659.0,1647.0
60084,2242.0,1659.0,1647.0
60085,13509.0,1659.0,1647.0
60086,22509.0,1659.0,1647.0
60087,2509.0,1659.0,1647.0
60088,2509.0,1659.0,1647.0
60089,2509.0,1659.0,1647.0
60090,2509.0,1659.0,1647.0
60091,2509.0,1659.0,1647.0
60092,801.0,1659.0,1647.0
60093,801.0,1659.0,1647.0
60094,801.0,1659.0,1647.0
60095,4374.0,1659.0,1647.0
60096,4374.0,1659.0,1647.0
60097,4374.0,1659.0,1647.0
60098,4374.0,1659.0,1647.0
60099,4374.0,1659.0,1647.0
60100,4374.0,1659.0,1647.0
60101,4374.0,1659.0,1647.0
60102,4374.0,1659.0,1647.0
60103,4374.0,1659.0,1647.0
60104,4374.0,1659.0,1647.0
60105,4374.0,1659.0,1647.0
60106,4374.0,1659.0,1647.0
60107,4374.0,1659.0,1647.0
60108,4374.0,1659.0,1647.0
60109,4374.0,1659.0,1647.0
60110,4374.0,1659.0,1647.0
60111,4374.0,1659.0,1647.0
60112,4374.0,1659.0,1647.0
60113,4374.0,1659.0,1647.0
60114,4374.0,1659.0,1647.0
60115,4374.0,1659.0,1647.0
60116,4374.0,1659.0,1647.0
60117,4374.0,1659.0,1647.0
60118,4374.0,1560.0,1647.0
60119,4374.0,1560.0,1647.0
60120,4374.0,1560.0,1647.0
60121,4374.0,1560.0,1647.0
60122,4374.0,1560.0,1647.0
60123,4374.0,1560.0,1647.0
60124,4374.0,1560.0,1647.0
60125,4374.0,1560.0,3872.0
60126,4374.0,1560.0,3872.0
60127,4374.0,1560.0,3872.0
60128,4374.0,1560.0,3872.0
60129,4374.0,1560.0,3872.0
60130,1812.0,1560.0,3275.0
60131,1812.0,1560.0,3275.0
60132,1812.0,1560.0,3275.0
60133,1812.0,1560.0,2109.0
60134,1812.0,1560.0,2109.0
60135,1812.0,1560.0,2109.0
60136,1812.0,1560.0,2109.0
60137,1812.0,1560.0,3604.0
60138,1812.0,1560.0,3604.0
60139,1812.0,1560.0,3604.0
60140,42.0,1560.0,3604.0
60141,181812.0,1560.0,3604.0
60142,1812.0,1560.0,3604.0
60143,1812.0,1560.0,3604.0
61671,255.0,2464.0,2574.0
61672,255454.0,2464.0,2574.0
61673,449.0,2464.0,2574.0
61674,921.0,2464.0,2574.0
61675,1838.0,2464.0,2574.0
61676,1838.0,2464.0,2574.0
61677,1838.0,2464.0,2574.0
61678,1838.0,2464.0,2574.0
61679,1838.0,2464.0,2574.0
61680,1303.0,2464.0,2574.0
61681,1303.0,2464.0,2574.0
61682,1303.0,2464.0,2574.0
61683,2403.0,2464.0,2574.0
61684,2403.0,2464.0,2574.0
61685,761.0,2464.0,2574.0
61686,1751.0,2464.0,2574.0
61687,1751.0,2464.0,2574.0
61688,1751.0,2464.0,2574.0
61689,1751.0,2464.0,2574.0
61690,1751.0,2464.0,2574.0
61691,1751.0,2464.0,2574.0
61692,1751.0,2464.0,1909.0
61693,1751.0,2464.0,1909.0
61694,2900.0,2464.0,1909.0
61695,2900.0,2464.0,1909.0
61696,2908.0,2464.0,1909.0
61697,2908.0,2464.0,1909.0
61698,2908.0,2464.0,1909.0
61699,2908.0,334.0,1909.0
61700,2908.0,334.0,1909.0
61701,2908.0,334.0,1909.0
61702,2908.0,334.0,1909.0
61703,2908.0,334.0,1909.0
61704,2908.0,334.0,1909.0
61705,20.0,856.0,1909.0
61706,1049.0,856.0,1909.0
61707,1049.0,856.0,1909.0
61708,1049.0,856.0,1909.0
61709,3030.0,856.0,1909.0
61710,3030.0,390.0,1909.0
61711,3030.0,1031.0,1909.0
61712,3030.0,341.0,1909.0
61713,3030.0,1436.0,1909.0
61714,3030.0,922.0,1909.0
61715,3030.0,922.0,1909.0
61716,3408.0,922.0,1909.0
61717,3408.0,922.0,1909.0
61718,3408.0,922.0,1909.0
61719,3408.0,922.0,1909.0
61720,3408.0,922.0,1909.0
61721,3408.0,922.0,1909.0
61722,3408.0,922.0,1909.0
61723,3408.0,922.0,1909.0
61724,3408.0,922.0,3966.0
61725,3408.0,922.0,3966.0
61726,3408.0,922.0,3966.0
61727,3408.0,1023.0,3966.0
61728,3408.0,1023.0,3966.0
61729,3408.0,634.0,3966.0
61730,3408.0,634.0,3966.0
61731,3408.0,634.0,3966.0
61732,3408.0,634.0,3966.0
61733,3408.0,634.0,3966.0
61734,3408.0,634.0,3966.0
61735,3408.0,634.0,3966.0
61736,3408.0,648.0,3966.0
61737,3408.0,648.0,3966.0
61738,3408.0,648.0,3966.0
61739,3408.0,1436.0,3966.0
61740,3408.0,962.0,3966.0
61741,3408.0,883.0,3966.0
61742,3408.0,883.0,3966.0
61743,3408.0,1940.0,3966.0
61744,3408.0,1410.0,3966.0
61745,3408.0,1410.0,3966.0
61746,3408.0,1410.0,3966.0
61747,3408.0,994.0,3966.0
61748,3408.0,1046.0,3966.0
61749,3408.0,1046.0,3966.0
61750,3408.0,1046.0,3966.0
61751,3408.0,1046.0,3966.0
61752,3408.0,1642.0,3966.0
61753,3408.0,1642.0,3966.0
61754,3408.0,1642.0,3966.0
61755,4006.0,1642.0,3966.0
61756,2693.0,1642.0,3966.0
61757,2693.0,1642.0,3966.0
61758,2693.0,1801.0,3966.0
61759,2693.0,1801.0,3966.0
61760,2693.0,1801.0,3966.0
61761,2693.0,1801.0,3966.0
61762,2693.0,1801.0,3966.0
61763,2693.0,1801.0,3966.0
61764,2693.0,1801.0,3966.0
61765,2693.0,1801.0,3966.0
61766,2693.0,1801.0,3966.0
61767,2693.0,1394.0,3966.0
61768,2693.0,1394.0,3966.0
61769,2693.0,1394.0,3966.0
61770,2693.0,1394.0,3966.0
61771,1071.0,1394.0,3966.0
61772,1071.0,1394.0,3966.0
61773,1071.0,1733.0,3966.0
61774,1071.0,1733.0,3966.0
61775,1071.0,1733.0,3966.0
61776,1071.0,1733.0,3966.0
61777,1071.0,1733.0,3966.0
61778,1071.0,1733.0,3966.0
61779,1071.0,1733.0,3966.0
61780,1071.0,1733.0,3966.0
61781,1071.0,1733.0,3966.0
61782,1071.0,1733.0,3966.0
61783,1071.0,1733.0,3966.0
61784,1071.0,1733.0,3966.0
61785,1071.0,1718.0,3966.0
61786,1071.0,1402.0,3966.0
61787,1071.0,1402.0,3966.0
61788,1071.0,1402.0,3966.0
61789,1071.0,1402.0,3966.0
61790,1071.0,767.0,3966.0
61791,1071.0,767.0,3966.0
61792,1071.0,767.0,3966.0
61793,1071.0,767.0,3966.0
61794,1071.0,767.0,3966.0
61795,1045.0,767.0,3966.0
61796,1045.0,767.0,3966.0
61797,1045.0,767.0,3966.0
61798,1045.0,767.0,3966.0
61799,1045.0,1042.0,3966.0
61800,1045.0,1042.0,3966.0
61801,1045.0,1042.0,3966.0
61802,2.0,1302.0,3966.0
61803,1045.0,985.0,3966.0
61804,10045.0,985.0,3966.0
63541,242.0,451.0,978.0
63542,242.0,451.0,826.0
63543,242.0,451.0,826.0
63544,242.0,451.0,1677.0
63545,242.0,451.0,1677.0
63546,220.0,451.0,731.0
63547,220.0,451.0,731.0
63548,220.0,451.0,731.0
63549,220.0,451.0,731.0
63550,220.0,451.0,264.0
63551,220.0,451.0,264.0
63552,220.0,451.0,264.0
63553,220.0,451.0,264.0
63554,220.0,451.0,264.0
63555,220.0,451.0,264.0
63556,220.0,451.0,264.0
63557,220.0,451.0,1398.0
63558,220.0,451.0,728.0
63559,220.0,451.0,543.0
63560,220.0,451.0,543.0
63561,220.0,451.0,543.0
63562,220.0,451.0,786.0
63563,220.0,451.0,1272.0
63564,220.0,1174.0,1272.0
63565,220.0,1174.0,1272.0
63566,220.0,1174.0,1272.0
63567,220.0,683.0,1272.0
63568,220.0,683.0,1272.0
63569,220.0,683.0,1272.0
63570,220.0,683.0,1272.0
63571,231.0,861.0,1272.0
63572,231.0,861.0,1272.0
63573,231.0,861.0,1272.0
63574,231.0,788.0,1272.0
63575,231.0,440.0,1272.0
63576,231.0,440.0,1272.0
63577,231.0,440.0,1272.0
63578,231.0,440.0,1272.0
63579,231.0,647.0,1272.0
63580,231.0,1347.0,1272.0
63581,231.0,1347.0,1272.0
63582,231.0,1347.0,1272.0
63583,231.0,1097.0,1272.0
63584,231.0,1097.0,1272.0
63585,231.0,1097.0,1320.0
63586,231.0,1097.0,839.0
63587,231.0,1097.0,1501.0
63588,231.0,1097.0,1501.0
63589,231.0,1097.0,1501.0
63590,231.0,1097.0,1501.0
63591,231.0,1010.0,1501.0
63592,231.0,1010.0,1354.0
63593,231.0,1010.0,909.0
63594,231.0,1010.0,909.0
63595,231.0,814.0,909.0
63596,231.0,814.0,909.0
63597,231.0,1428.0,909.0
63598,231.0,1092.0,909.0
63599,231.0,1092.0,1700.0
63600,231.0,1092.0,593.0
63601,231.0,1092.0,593.0
63602,231.0,1092.0,593.0
63603,231.0,1092.0,593.0
63604,231.0,1092.0,1372.0
63605,231.0,1092.0,1372.0
63606,330.0,1092.0,1372.0
63607,330.0,1092.0,1372.0
63608,330.0,1092.0,1372.0
63609,330.0,1092.0,1372.0
63610,330.0,1092.0,1372.0
63611,400.0,1092.0,1372.0
63612,553.0,1092.0,1372.0
63613,553.0,1092.0,812.0
63614,553.0,1092.0,812.0
63615,553.0,1092.0,812.0
63616,440.0,1092.0,812.0
63617,440.0,1092.0,812.0
63618,440.0,1092.0,812.0
63619,440.0,1092.0,812.0
63620,440.0,1648.0,812.0
63621,440.0,1648.0,1749.0
63622,440.0,1648.0,1749.0
63623,440.0,1648.0,1749.0
63624,440.0,1648.0,1749.0
63625,440.0,1648.0,1749.0
63626,440.0,1648.0,1749.0
63627,462.0,1648.0,1749.0
63628,462.0,1648.0,1749.0
63629,462.0,1144.0,1749.0
63630,462.0,1144.0,1749.0
63631,462.0,1144.0,1300.0
63632,462.0,1144.0,1300.0
63633,462.0,1144.0,1300.0
63634,462.0,1144.0,1300.0
63635,462.0,1144.0,1194.0
63636,462.0,1144.0,1194.0
63637,462.0,1144.0,1194.0
63638,462.0,606.0,1194.0
63639,462.0,606.0,1749.0
63640,462.0,606.0,1281.0
63641,462.0,606.0,902.0
63642,462.0,899.0,902.0
63643,462.0,899.0,902.0
63644,462.0,1000.0,902.0
63645,462.0,1000.0,902.0
63646,462.0,1241.0,902.0
63647,462.0,1241.0,902.0
63648,462.0,1241.0,902.0
63649,462.0,974.0,902.0
63650,462.0,974.0,902.0
63651,462.0,1189.0,902.0
63652,462.0,1189.0,902.0
63653,462.0,1189.0,902.0
63654,462.0,1189.0,1487.0
63655,462.0,1743.0,1487.0
63656,462.0,690.0,1487.0
63657,462.0,690.0,1487.0
63658,462.0,1004.0,1487.0
63659,462.0,1004.0,1487.0
63660,462.0,1387.0,1487.0
63661,462.0,1387.0,1487.0
63662,520.0,1387.0,1082.0
63663,520.0,1387.0,1082.0
63664,720.0,1387.0,1082.0
63665,720.0,1387.0,1082.0
63666,504.0,1387.0,908.0
63667,504.0,1387.0,908.0
63668,504.0,1387.0,908.0
63669,504.0,1387.0,908.0
63670,504.0,1387.0,908.0
63671,504.0,1387.0,908.0
63672,504.0,1387.0,908.0
63673,504.0,1387.0,908.0
63674,504.0,1387.0,908.0
63675,504.0,1387.0,908.0
63676,504.0,1094.0,908.0
63677,504.0,807.0,908.0
63678,504.0,1187.0,908.0
63679,504.0,1187.0,908.0
63680,504.0,1187.0,908.0
63681,504.0,1187.0,908.0
63682,504.0,1302.0,908.0
63683,504.0,1302.0,908.0
63684,504.0,1302.0,932.0
63685,504.0,1302.0,932.0
63686,504.0,1302.0,813.0
63687,504.0,1302.0,813.0
63688,504.0,1302.0,813.0
63689,879.0,1302.0,813.0
63690,879.0,1302.0,813.0
63691,306.0,1302.0,813.0
63692,382.0,1302.0,813.0
65262,405.0,724.0,589.0
65263,405.0,724.0,589.0
65264,405.0,1116.0,413.0
65265,405.0,1116.0,413.0
65266,113.0,1116.0,413.0
65267,113.0,1107.0,413.0
65268,295.0,1107.0,413.0
65269,295.0,542.0,413.0
65270,295.0,542.0,413.0
65271,295.0,542.0,413.0
65272,10295.0,542.0,413.0
65273,295.0,542.0,413.0
