timestamp,emg1,emg2,emg3
136,2259.0,2565.0,3805.0
137,2259.0,2565.0,2449.0
138,2259.0,2565.0,2449.0
139,2259.0,2565.0,2598.0
140,2259.0,2565.0,2598.0
141,2259.0,2565.0,2598.0
142,2259.0,2565.0,2598.0
143,22.0,2565.0,2490.0
144,2259.0,2792.0,5020.0
145,2259.0,2792.0,6060.0
146,2259.0,2792.0,6060.0
147,2259.0,2792.0,6060.0
148,2259.0,2792.0,6060.0
149,2259.0,2792.0,6060.0
150,2259.0,2792.0,3075.0
151,2259.0,2792.0,3075.0
152,2259.0,3819.0,3075.0
153,2259.0,3819.0,3075.0
154,2259.0,3819.0,3075.0
155,2259.0,3819.0,3075.0
156,2259.0,3819.0,4130.0
157,2259.0,3819.0,4130.0
158,2259.0,3819.0,4130.0
159,2259.0,3819.0,4130.0
160,2259.0,3819.0,4130.0
161,200.0,1817.0,4130.0
162,2259.0,1817.0,3581.0
163,2259.0,1817.0,3581.0
164,2259.0,1817.0,2233.0
165,2259.0,1817.0,2233.0
166,2259.0,1817.0,2233.0
167,2259.0,1817.0,2233.0
168,2259.0,1817.0,4193.0
169,2259.0,1817.0,5214.0
170,2259.0,1817.0,1818.0
171,2259.0,1817.0,1818.0
172,2259.0,1817.0,1818.0
173,5845.0,1817.0,1927.0
174,5845.0,1817.0,1927.0
175,5845.0,1817.0,1927.0
176,25.0,1817.0,1927.0
177,5845845.0,1817.0,1927.0
178,5845.0,1817.0,1927.0
179,5845.0,1817.0,733.0
180,5845.0,2968.0,733.0
181,5845.0,2968.0,5054.0
182,5845.0,2968.0,2430.0
183,5845.0,2968.0,3845.0
184,5845.0,2968.0,786.0
185,5845.0,1811.0,786.0
186,5845.0,3001.0,786.0
187,5845.0,3001.0,786.0
188,5845.0,3001.0,786.0
189,5845.0,3001.0,5275.0
190,5845.0,3001.0,5275.0
191,5845.0,2353.0,5275.0
192,5845.0,2353.0,5275.0
193,5845.0,2353.0,5275.0
194,5845.0,2289.0,5275.0
195,5845.0,2289.0,4146.0
196,5845.0,2289.0,2055.0
197,5845.0,2289.0,4512.0
198,5845.0,2289.0,4512.0
199,5845.0,2289.0,4512.0
200,5845.0,2289.0,1879.0
201,5845.0,2289.0,1879.0
202,5845.0,2289.0,1879.0
203,5845.0,2289.0,1879.0
204,5845.0,2289.0,3159.0
205,5845.0,2289.0,3159.0
206,5845.0,2289.0,3181.0
207,5845.0,1999.0,3181.0
208,5845.0,1999.0,4844.0
209,5845.0,1999.0,4844.0
210,5845.0,1999.0,4844.0
211,5845.0,1999.0,4844.0
212,5845.0,1999.0,4844.0
213,5845.0,2384.0,4844.0
214,3638.0,2384.0,4844.0
215,3638.0,2351.0,4844.0
216,3638.0,2909.0,4844.0
217,3638.0,2909.0,1715.0
218,4755.0,2909.0,1715.0
219,2755.0,2909.0,1715.0
220,2755.0,2909.0,1715.0
221,3824.0,2909.0,1715.0
222,3824.0,4582.0,1715.0
223,3824.0,2688.0,1715.0
224,3824.0,2688.0,1715.0
225,3824.0,2688.0,1715.0
226,3824.0,2688.0,1715.0
227,3824.0,2688.0,1715.0
228,3824.0,2688.0,1715.0
229,3824.0,2688.0,1715.0
230,3824.0,2688.0,1715.0
231,3824.0,2688.0,2166.0
232,3824.0,2688.0,2166.0
233,3824.0,2688.0,2166.0
234,3824.0,2688.0,2166.0
235,3824.0,2688.0,2166.0
236,3824.0,3554.0,2166.0
237,3677.0,3554.0,2166.0
238,3677.0,3554.0,2166.0
239,4092.0,3554.0,4277.0
240,4092.0,3554.0,4277.0
241,4092.0,3554.0,4277.0
242,4092.0,3554.0,4277.0
243,4092.0,3554.0,4277.0
244,4092.0,3554.0,4277.0
245,4092.0,3507.0,4277.0
246,4092.0,3507.0,3551.0
247,3407.0,3507.0,3551.0
248,3407.0,1791.0,3551.0
249,3407.0,1678.0,3551.0
250,3407.0,2803.0,3551.0
251,3407.0,3141.0,3551.0
252,3407.0,3141.0,3551.0
253,3407.0,3141.0,3551.0
254,3407.0,3141.0,3551.0
255,3407.0,3141.0,3551.0
256,3407.0,3141.0,3551.0
257,3407.0,3141.0,2537.0
258,3407.0,3141.0,5993.0
259,3407.0,3141.0,4465.0
260,3407.0,3141.0,4465.0
261,3407.0,3141.0,4465.0
262,3407.0,3141.0,4765.0
263,3407.0,3141.0,4765.0
264,3407.0,3141.0,4376.0
265,3407.0,3141.0,4376.0
266,34407.0,3141.0,4376.0
267,3407.0,3141.0,3171.0
268,7.0,3141.0,3171.0
269,3403407.0,3141.0,5994.0
270,3407.0,3141.0,5994.0
411,5172.0,1827.0,4250.0
412,1995.0,1827.0,5132.0
413,1995.0,3483.0,5132.0
414,1995.0,1224.0,5132.0
415,1995.0,1224.0,5132.0
416,1995.0,1224.0,5132.0
417,1995.0,1224.0,5132.0
418,1995.0,1224.0,5132.0
419,1995.0,1224.0,5132.0
420,1995.0,1224.0,5132.0
421,1995.0,1224.0,5132.0
422,1995.0,1224.0,5132.0
423,1995.0,1224.0,5132.0
424,1995.0,3938.0,5132.0
425,1995.0,3938.0,5132.0
426,1995.0,3938.0,5132.0
427,1995.0,3938.0,3207.0
428,1995.0,3938.0,2267.0
429,1995.0,3938.0,2870.0
430,1995.0,3938.0,2870.0
431,1995.0,3938.0,1605.0
432,1995.0,3938.0,1605.0
433,1995.0,3938.0,1605.0
434,1995.0,3938.0,1605.0
435,6525.0,3938.0,1605.0
436,6525.0,3938.0,1131.0
437,6525.0,3938.0,1131.0
438,6525.0,3194.0,1131.0
439,6525.0,3194.0,1131.0
440,6525.0,3194.0,1131.0
441,6525.0,3194.0,3308.0
442,6525.0,3194.0,2940.0
443,6525.0,3194.0,2940.0
444,6525.0,3194.0,2940.0
445,6525.0,3194.0,2940.0
446,6525.0,3194.0,2940.0
447,6525.0,3194.0,2940.0
448,6525.0,913.0,3115.0
449,6525.0,913.0,3115.0
450,5477.0,913.0,3115.0
451,5477.0,913.0,3115.0
452,5477.0,913.0,3115.0
453,5477.0,913.0,3637.0
454,5477.0,1785.0,3637.0
455,5477.0,1785.0,3637.0
456,5.0,1785.0,3637.0
457,54777.0,1785.0,1808.0
458,5477.0,1785.0,1627.0
459,5477.0,1785.0,1627.0
460,5477.0,1785.0,2133.0
461,5477.0,1785.0,2777.0
462,5477.0,1785.0,2777.0
463,5477.0,1785.0,2777.0
464,5477.0,1785.0,2567.0
465,5477.0,1785.0,2567.0
466,5477.0,1785.0,2567.0
467,5477.0,1785.0,2567.0
468,5477.0,1785.0,2371.0
469,5477.0,1785.0,2371.0
470,4833.0,1785.0,2371.0
471,4833.0,2326.0,3498.0
472,3928.0,2355.0,3498.0
473,3928.0,2355.0,3498.0
474,3928.0,2355.0,3498.0
475,3995.0,2355.0,3498.0
476,3995.0,2355.0,3498.0
477,3995.0,2355.0,3498.0
478,3995.0,2355.0,3498.0
479,3995.0,3290.0,3498.0
480,3995.0,3290.0,3498.0
481,3995.0,3290.0,3498.0
482,3995.0,3290.0,3498.0
483,3995.0,3290.0,3498.0
484,3995.0,3290.0,3364.0
485,3995.0,2423.0,3364.0
486,3995.0,2423.0,3364.0
487,3995.0,2423.0,3364.0
488,3995.0,2423.0,3875.0
489,3995.0,2423.0,3875.0
490,3995.0,2423.0,5561.0
491,3995.0,2423.0,5561.0
492,3995.0,2423.0,5561.0
493,3995.0,2423.0,4733.0
494,3995.0,2423.0,4733.0
495,3995.0,2423.0,4733.0
496,3995.0,2423.0,4733.0
497,3995.0,2423.0,4733.0
498,3995.0,3366.0,4733.0
499,3995.0,2531.0,4733.0
500,3995.0,2531.0,4733.0
501,3995.0,1929.0,4733.0
502,3995.0,1929.0,4733.0
503,3995.0,2461.0,4733.0
504,3995.0,2194.0,4733.0
505,3995.0,2194.0,4733.0
506,3995.0,3026.0,2059.0
507,3995.0,3026.0,2059.0
508,3995.0,3026.0,2059.0
509,3995.0,3026.0,2059.0
510,3995.0,3026.0,2059.0
511,3995.0,3026.0,4362.0
512,25.0,3026.0,4362.0
513,3993995.0,2026.0,4362.0
514,3995.0,2026.0,2701.0
515,399995.0,2026.0,2701.0
516,3995.0,2026.0,4976.0
517,3995.0,2026.0,4976.0
518,3995.0,2026.0,4976.0
519,3995.0,2026.0,4976.0
520,3995.0,2026.0,4976.0
521,3995.0,2026.0,4976.0
522,3995.0,2026.0,4207.0
523,3995.0,2026.0,4207.0
524,3995.0,2026.0,3755.0
525,3995.0,2026.0,4363.0
526,3995.0,2026.0,4363.0
527,3995.0,2026.0,4363.0
528,4010.0,2026.0,4363.0
529,4010.0,2026.0,4363.0
530,4010.0,2026.0,4363.0
531,4010.0,2026.0,3001.0
532,4010.0,2026.0,3001.0
533,4010.0,2026.0,3001.0
534,4010.0,2026.0,3202.0
535,4010.0,2026.0,4209.0
536,4010.0,2026.0,4209.0
537,4010.0,2026.0,4209.0
538,4010.0,2026.0,4209.0
539,4010.0,3149.0,4209.0
540,4010.0,3149.0,4209.0
541,4010.0,3149.0,4209.0
542,4010.0,3149.0,4209.0
543,4010.0,3149.0,4209.0
544,4010.0,2753.0,4209.0
545,4010.0,2753.0,4209.0
546,4010.0,2753.0,4209.0
547,4010.0,2753.0,4209.0
548,4010.0,2753.0,4209.0
549,4010.0,2753.0,4209.0
550,3350.0,2753.0,4209.0
551,3350.0,2753.0,4209.0
552,3144.0,2753.0,4209.0
553,3144.0,2753.0,4209.0
554,3144.0,2753.0,4396.0
555,3144.0,2753.0,4396.0
556,3144.0,4073.0,4396.0
688,7258.0,892.0,4149.0
689,70.0,892.0,4149.0
690,7258.0,892.0,4149.0
691,7258.0,892.0,4149.0
692,7258.0,892.0,4149.0
693,7258.0,892.0,4149.0
694,7258.0,892.0,5281.0
695,7258.0,892.0,5281.0
696,7258.0,892.0,7692.0
697,7258.0,1002.0,3973.0
698,258.0,1002.0,3973.0
699,7258.0,1002.0,3973.0
700,7258.0,1002.0,3973.0
701,7258.0,1002.0,3973.0
702,7258.0,1002.0,3973.0
703,7258.0,1002.0,3973.0
704,7258.0,1002.0,3973.0
705,7258.0,2295.0,3973.0
706,7258.0,2089.0,3973.0
707,7258.0,1903.0,3973.0
708,7258.0,1903.0,3973.0
709,7258.0,1903.0,3973.0
710,7258.0,3218.0,3973.0
711,7258.0,3218.0,3973.0
712,7258.0,3904.0,3973.0
713,7258.0,3904.0,3973.0
714,7258.0,3904.0,3973.0
715,7258.0,1566.0,3973.0
716,7258.0,1566.0,3973.0
717,7258.0,1566.0,3973.0
718,7258.0,1566.0,3973.0
719,7258.0,1566.0,3973.0
720,7258.0,1566.0,3973.0
721,7258.0,2581.0,3973.0
722,7258.0,2581.0,3973.0
723,7258.0,3033.0,3973.0
724,7258.0,3033.0,3973.0
725,7258.0,3558.0,3973.0
726,7258.0,3558.0,3973.0
727,7258.0,3558.0,3973.0
728,7258.0,3558.0,3973.0
729,58.0,3558.0,3973.0
730,7258.0,3558.0,6102.0
731,7258.0,3558.0,6102.0
732,7258.0,3558.0,1913.0
733,7258.0,2402.0,1913.0
734,7258.0,2402.0,2758.0
735,7258.0,3800.0,2758.0
736,7258.0,3800.0,2758.0
737,7258.0,3800.0,2758.0
738,4358.0,3800.0,2758.0
739,4358.0,2704.0,2758.0
740,4358.0,2704.0,2758.0
741,2406.0,3322.0,2758.0
742,2406.0,3322.0,2758.0
743,72.0,3322.0,2758.0
744,4084.0,2065.0,2758.0
745,4084.0,2065.0,2724.0
746,3747.0,2426.0,2724.0
747,3747.0,2426.0,2724.0
748,3747.0,1203.0,2724.0
749,3747.0,1203.0,2724.0
750,3747.0,1203.0,2724.0
751,3747.0,1203.0,2724.0
752,3747.0,1203.0,2724.0
753,3747.0,1203.0,2724.0
754,3747.0,1203.0,2724.0
755,3747.0,1203.0,3205.0
756,3747.0,1203.0,3205.0
757,3747.0,1203.0,3205.0
758,3747.0,1203.0,2617.0
759,3747.0,1203.0,2617.0
760,3747.0,1203.0,2617.0
761,3747.0,1203.0,2878.0
762,3747.0,1203.0,2878.0
763,3747.0,2406.0,2878.0
764,3747.0,2406.0,2878.0
765,3747.0,2406.0,3112.0
766,3747.0,2406.0,3112.0
767,1912.0,2406.0,3112.0
768,1912.0,2406.0,2095.0
769,1912.0,2406.0,2095.0
770,1912.0,2406.0,2095.0
771,1912.0,2406.0,2095.0
772,1912.0,2406.0,2095.0
773,1912.0,2406.0,2095.0
774,1912.0,2406.0,2095.0
775,1912.0,2406.0,1477.0
776,1912.0,2406.0,1477.0
777,1912.0,1987.0,1477.0
778,1912.0,1987.0,1477.0
779,1912.0,1987.0,1477.0
780,1912.0,1987.0,1477.0
781,1912.0,1987.0,2620.0
782,1912.0,1987.0,2620.0
783,1912.0,1987.0,1355.0
784,3973.0,1987.0,1355.0
785,3973.0,1987.0,2191.0
786,3973.0,1987.0,2191.0
787,3219.0,1987.0,3719.0
788,3219.0,1987.0,3719.0
789,3219.0,1987.0,3719.0
790,3219.0,1987.0,3719.0
791,3219.0,1987.0,3719.0
792,3219.0,1987.0,3719.0
793,3948.0,1987.0,3719.0
794,3948.0,1987.0,4079.0
795,3948.0,1987.0,2605.0
796,3948.0,2158.0,3700.0
797,3948.0,2158.0,2465.0
798,3948.0,2158.0,2465.0
799,3948.0,2158.0,2465.0
800,3948.0,1343.0,2465.0
801,3948.0,1560.0,2465.0
802,3948.0,1560.0,2465.0
803,3948.0,1560.0,2465.0
804,3948.0,935.0,2465.0
805,3948.0,935.0,2686.0
806,3948.0,935.0,2686.0
807,3948.0,935.0,2686.0
808,3948.0,935.0,2686.0
809,3948.0,935.0,3787.0
810,3948.0,935.0,3787.0
811,3948.0,935.0,4505.0
812,3948.0,935.0,969.0
813,3948.0,935.0,1478.0
814,3948.0,935.0,1478.0
815,3948.0,935.0,1828.0
816,3948.0,935.0,1828.0
817,3948.0,935.0,3991.0
818,3948.0,935.0,3510.0
819,3948.0,2387.0,3700.0
820,3948.0,2387.0,3700.0
821,3948.0,2387.0,3700.0
822,3948.0,2387.0,3700.0
823,3948.0,2387.0,3700.0
824,3948.0,2387.0,3700.0
960,5551.0,1873.0,3950.0
961,5551.0,1873.0,3950.0
962,5551.0,2160.0,3950.0
963,5551.0,2160.0,3950.0
964,5551.0,1139.0,3950.0
965,5551.0,1139.0,3950.0
966,5160.0,1139.0,3950.0
967,5160.0,1139.0,3950.0
968,5160.0,1139.0,3950.0
969,5160.0,1139.0,3950.0
970,5160.0,1139.0,3950.0
971,5160.0,2548.0,3950.0
972,5160.0,2548.0,3950.0
973,5160.0,2548.0,3950.0
974,5160.0,2548.0,3950.0
975,5160.0,2548.0,3587.0
976,5160.0,2218.0,3587.0
977,5160.0,2218.0,3587.0
978,5160.0,2218.0,3587.0
979,5160.0,3020.0,3587.0
980,5160.0,3459.0,3587.0
981,5160.0,3459.0,3587.0
982,5160.0,1694.0,3587.0
983,5160.0,2100.0,3587.0
984,5160.0,2100.0,3587.0
985,5160.0,2100.0,2762.0
986,5160.0,2453.0,4372.0
987,5160.0,2453.0,4372.0
988,5160.0,2453.0,4372.0
989,5160.0,1846.0,4372.0
990,5160.0,1846.0,4372.0
991,5160.0,1846.0,4372.0
992,5160.0,2908.0,4372.0
993,5160.0,2908.0,2422.0
994,5160.0,2908.0,2422.0
995,5160.0,2908.0,3759.0
996,5220.0,2908.0,3759.0
997,5220.0,2908.0,3759.0
998,5220.0,2908.0,5462.0
999,5220.0,2908.0,5462.0
1000,5220.0,2908.0,5462.0
1001,7151.0,2908.0,5462.0
1002,7151.0,2908.0,5462.0
1003,7151.0,2908.0,5462.0
1004,7151.0,2908.0,5462.0
1005,7151.0,2908.0,5462.0
1006,7151.0,2443.0,4070.0
1007,7151.0,2443.0,4070.0
1008,4780.0,2443.0,4070.0
1009,4780.0,2300.0,4070.0
1010,4780.0,2300.0,4070.0
1011,4780.0,2300.0,4070.0
1012,4780.0,2300.0,4070.0
1013,4780.0,2300.0,4070.0
1014,4780.0,2749.0,4070.0
1015,4057.0,2749.0,4070.0
1016,4057.0,2749.0,4070.0
1017,4057.0,3434.0,4070.0
1018,4057.0,3434.0,4070.0
1019,4057.0,2681.0,4070.0
1020,4057.0,2846.0,4070.0
1021,4057.0,2846.0,2551.0
1022,4057.0,2846.0,2551.0
1023,1586.0,2846.0,2551.0
1024,1586.0,2846.0,2551.0
1025,1586.0,2846.0,7334.0
1026,1586.0,2846.0,4313.0
1027,1586.0,2846.0,4313.0
1028,1586.0,2846.0,3536.0
1029,1586.0,2846.0,3536.0
1030,1586.0,2846.0,3536.0
1031,1586.0,2846.0,3536.0
1032,1586.0,2846.0,4443.0
1033,1586.0,2846.0,4443.0
1034,1586.0,2846.0,4772.0
1035,1586.0,2846.0,4772.0
1036,1586.0,2846.0,4772.0
1037,1586.0,2846.0,4772.0
1038,1586.0,2846.0,4772.0
1039,1586.0,2846.0,4772.0
1040,1586.0,1785.0,4772.0
1041,1586.0,1795.0,4772.0
1042,1586.0,1795.0,4772.0
1043,1586.0,1795.0,3522.0
1044,1586.0,1676.0,4278.0
1045,1586.0,1676.0,4278.0
1046,1586.0,1676.0,4278.0
1047,3744.0,1676.0,4278.0
1048,3744.0,1676.0,4278.0
1049,3744.0,1676.0,4278.0
1050,3744.0,1676.0,4278.0
1051,3744.0,1676.0,4278.0
1052,3744.0,1676.0,4278.0
1053,3744.0,2601.0,4278.0
1054,3744.0,2018.0,4278.0
1055,4.0,2018.0,4278.0
1056,344.0,2007.0,4278.0
1057,373744.0,2007.0,4278.0
1058,3744.0,1466.0,4278.0
1059,3744.0,1466.0,4278.0
1060,3485.0,1466.0,4278.0
1061,3485.0,1466.0,4278.0
1062,3485.0,1466.0,4278.0
1063,3485.0,1466.0,4278.0
1064,3485.0,1466.0,4278.0
1065,3485.0,1466.0,4278.0
1066,3485.0,2833.0,4278.0
1067,3485.0,2833.0,4278.0
1068,3485.0,3030.0,4278.0
1069,3485.0,3030.0,4278.0
1070,3485.0,3030.0,4278.0
1071,3485.0,3030.0,4278.0
1072,3485.0,3030.0,2780.0
1073,3485.0,3030.0,2780.0
1074,3485.0,3030.0,2780.0
1075,3485.0,3030.0,2780.0
1076,3485.0,3030.0,2780.0
1077,4143.0,3030.0,2780.0
1078,4143.0,2123.0,2306.0
1079,4143.0,2123.0,2306.0
1080,4143.0,2123.0,2306.0
1081,4143.0,2123.0,2306.0
1082,4143.0,3657.0,2306.0
1083,4143.0,3657.0,2298.0
1084,4143.0,3657.0,2262.0
1085,4143.0,3657.0,731.0
1086,4143.0,3657.0,3241.0
1087,7675.0,3657.0,3241.0
1088,7675.0,3657.0,3241.0
1089,7675.0,3657.0,3241.0
1090,7675.0,3657.0,3241.0
1091,7675.0,3657.0,3241.0
1092,7675.0,3657.0,3241.0
1093,3582.0,3657.0,3241.0
1094,1669.0,3657.0,3241.0
1095,1669.0,3657.0,3287.0
1096,1669.0,3657.0,3287.0
1097,1669.0,3657.0,3287.0
1098,1669.0,4158.0,4215.0
1099,1669.0,4158.0,4467.0
1241,3545.0,2548.0,1320.0
1242,3545.0,2548.0,1320.0
1243,3545.0,2548.0,1320.0
1244,3545.0,2548.0,1320.0
1245,3545.0,2548.0,1320.0
1246,3545.0,2548.0,1320.0
1247,3545.0,2548.0,1320.0
1248,3545.0,2548.0,1320.0
1249,3545.0,2548.0,1320.0
1250,3545.0,2548.0,1320.0
1251,3545.0,2548.0,1320.0
1252,3545.0,2548.0,1320.0
1253,3545.0,2548.0,1320.0
1254,3545.0,2548.0,1320.0
1255,3545.0,2548.0,1320.0
1256,3545.0,2548.0,1320.0
1257,3545.0,2548.0,1320.0
1258,3545.0,2548.0,1320.0
1259,3545.0,2548.0,1320.0
1260,3545.0,2548.0,1320.0
1261,3545.0,3026.0,1320.0
1262,3545.0,3026.0,1320.0
1263,3545.0,3026.0,2199.0
1264,3545.0,3026.0,2199.0
1265,3545.0,3026.0,4358.0
1266,3545.0,3026.0,4358.0
1267,3545.0,3026.0,3078.0
1268,3545.0,1499.0,3078.0
1269,3545.0,1998.0,3078.0
1270,3545.0,1998.0,3078.0
1271,3545.0,1998.0,3078.0
1272,3545.0,1998.0,3078.0
1273,3545.0,1998.0,3078.0
1274,3545.0,1998.0,3078.0
1275,3545.0,3424.0,3078.0
1276,3545.0,3994.0,3078.0
1277,3545.0,3994.0,3078.0
1278,3545.0,3994.0,3783.0
1279,3545.0,3994.0,3783.0
1280,3545.0,3994.0,6552.0
1281,3545.0,2433.0,6552.0
1282,3545.0,2433.0,6552.0
1283,3545.0,2433.0,5430.0
1284,3545.0,2433.0,5430.0
1285,3545.0,2433.0,5430.0
1286,3545.0,3527.0,5430.0
1287,3545.0,3527.0,5430.0
1288,3545.0,3527.0,5430.0
1289,3545.0,3527.0,5430.0
1290,3545.0,3527.0,5430.0
1291,3545.0,3527.0,5430.0
1292,3545.0,3527.0,5430.0
1293,3545.0,3527.0,5430.0
1294,3545.0,3527.0,5430.0
1295,3545.0,3527.0,5430.0
1296,3545.0,3527.0,5430.0
1297,3545.0,3067.0,5430.0
1298,3545.0,2317.0,5430.0
1299,3545.0,3822.0,5430.0
1300,3545.0,3822.0,5430.0
1301,3545.0,3822.0,5430.0
1302,3545.0,3822.0,5430.0
1303,3545.0,3822.0,5430.0
1304,3545.0,3822.0,5430.0
1305,3099.0,3822.0,5430.0
1306,3099.0,2505.0,5430.0
1307,3099.0,2505.0,5430.0
1308,3746.0,2505.0,5430.0
1309,3746.0,2639.0,5430.0
1310,3746.0,2639.0,5430.0
1311,3746.0,2639.0,5430.0
1312,3746.0,2639.0,5430.0
1313,3746.0,2639.0,5430.0
1314,3746.0,2639.0,5430.0
1315,3440.0,2639.0,5430.0
1316,3440.0,2639.0,5430.0
1317,3440.0,2639.0,5430.0
1318,3440.0,2639.0,5430.0
1319,3440.0,2639.0,5430.0
1320,3440.0,2639.0,5430.0
1321,3440.0,2639.0,5430.0
1322,3440.0,2639.0,3491.0
1323,3440.0,2639.0,3491.0
1324,3440.0,3652.0,3491.0
1325,3440.0,2894.0,3491.0
1326,3440.0,2894.0,3491.0
1327,3440.0,2894.0,3491.0
1328,6772.0,2894.0,3491.0
1329,6772.0,2894.0,3491.0
1330,6772.0,2894.0,3491.0
1331,6772.0,2894.0,3491.0
1332,3726.0,2894.0,3491.0
1333,3726.0,2894.0,3491.0
1334,4437.0,2894.0,3491.0
1335,4437.0,2894.0,3491.0
1336,4437.0,2894.0,3491.0
1337,4437.0,2894.0,3491.0
1338,4912.0,2894.0,3491.0
1339,4912.0,2894.0,3491.0
1340,4912.0,2894.0,3491.0
1341,4912.0,2894.0,2854.0
1342,4912.0,2894.0,2854.0
1343,4912.0,2894.0,2854.0
1344,4912.0,2894.0,2854.0
1345,4912.0,2894.0,2854.0
1346,4912.0,2894.0,2854.0
1347,4912.0,2894.0,2854.0
1348,4912.0,2894.0,3937.0
1349,4912.0,2894.0,1913.0
1350,4912.0,2894.0,1913.0
1351,4912.0,2894.0,1913.0
1352,4912.0,2894.0,1900.0
1353,4912.0,2894.0,1900.0
1354,4912.0,2894.0,6807.0
1355,4912.0,2894.0,6807.0
1356,4912.0,2894.0,6807.0
1357,4912.0,2894.0,4315.0
1358,1654.0,2894.0,4315.0
1359,1654.0,2894.0,4315.0
1360,1654.0,2894.0,4315.0
1361,1654.0,2894.0,4137.0
1362,1654.0,2894.0,2634.0
1363,1654.0,2894.0,2634.0
1364,5781.0,2894.0,2634.0
1365,5781.0,2894.0,2634.0
1366,5781.0,2894.0,2634.0
1367,2714.0,2894.0,2090.0
1368,2714.0,2894.0,5874.0
1369,2379.0,2894.0,2024.0
1370,2379.0,2894.0,2024.0
1371,5979.0,2894.0,2024.0
1487,3465.0,3715.0,2773.0
1488,3465.0,4298.0,2773.0
1489,3465.0,1884.0,2773.0
1490,3465.0,1884.0,3367.0
1491,3465.0,1884.0,3367.0
1492,35465.0,1884.0,3367.0
1493,3465.0,3664.0,4204.0
1494,3465.0,3664.0,4204.0
1495,3465.0,3664.0,2239.0
1496,3465.0,3664.0,2239.0
1497,3465.0,3664.0,2239.0
1498,3465.0,3664.0,2239.0
1499,3465.0,3664.0,2239.0
1500,3465.0,3664.0,2239.0
1501,3465.0,3664.0,3609.0
1502,3465.0,3664.0,3609.0
1503,3465.0,3664.0,3609.0
1504,2699.0,3664.0,3609.0
1505,2699.0,3664.0,3609.0
1506,2699.0,3664.0,3609.0
1507,2699.0,3664.0,5301.0
1508,2699.0,3664.0,4451.0
1509,2699.0,3664.0,4451.0
1510,2699.0,3664.0,4451.0
1511,2699.0,3785.0,4451.0
1512,2699.0,915.0,4451.0
1513,2699.0,915.0,1599.0
1514,2699.0,915.0,3437.0
1515,2699.0,915.0,3437.0
1516,2699.0,915.0,3437.0
1517,2699.0,2534.0,3546.0
1518,2699.0,2534.0,3546.0
1519,699.0,1810.0,3546.0
1520,24487.0,1810.0,3546.0
1521,4487.0,2308.0,3546.0
1522,4487.0,2308.0,3546.0
1523,4487.0,2308.0,3546.0
1524,4487.0,2308.0,3546.0
1525,4487.0,2308.0,4216.0
1526,4487.0,1839.0,4216.0
1527,4487.0,1327.0,4216.0
1528,4487.0,1327.0,4216.0
1529,4487.0,1327.0,3369.0
1530,4487.0,1327.0,3773.0
1531,4487.0,1327.0,3773.0
1532,4487.0,1327.0,3773.0
1533,4487.0,1327.0,3773.0
1534,4487.0,2708.0,3773.0
1535,3305.0,2708.0,3773.0
1536,3857.0,2708.0,3773.0
1537,3857.0,2708.0,3773.0
1538,3857.0,2708.0,3773.0
1539,3857.0,2708.0,3773.0
1540,3857.0,2708.0,3859.0
1541,3857.0,2708.0,3859.0
1542,3857.0,2708.0,3859.0
1543,3857.0,2708.0,3859.0
1544,1945.0,2708.0,3859.0
1545,1945.0,2708.0,3859.0
1546,1945.0,2708.0,4247.0
1547,1945.0,1929.0,4247.0
1548,1945.0,1929.0,4247.0
1549,1945.0,1929.0,4247.0
1550,4400.0,1929.0,5374.0
1551,1945.0,1929.0,5374.0
1552,1945.0,3801.0,5374.0
1553,1945.0,1482.0,4339.0
1554,1945.0,1482.0,4339.0
1555,1945.0,1482.0,4339.0
1556,19.0,1482.0,4339.0
1557,1945.0,1825.0,4339.0
1558,1945.0,3007.0,4339.0
1559,1945.0,3007.0,4339.0
1560,4249.0,3007.0,4339.0
1561,3347.0,1168.0,4339.0
1562,3347.0,1168.0,4339.0
1563,3347.0,1168.0,4339.0
1564,3347.0,1168.0,4339.0
1565,3347.0,1168.0,4339.0
1566,3937.0,1168.0,4339.0
1567,3937.0,1168.0,4339.0
1568,3937.0,1168.0,4339.0
1569,3937.0,1168.0,4339.0
1570,3937.0,1168.0,4339.0
1571,3937.0,2991.0,4339.0
1572,3937.0,2991.0,4339.0
1573,3937.0,2991.0,4339.0
1574,3547.0,3355.0,4339.0
1575,33547.0,3355.0,4339.0
1576,3547.0,3355.0,4339.0
1577,3547.0,3355.0,4339.0
1578,3547.0,3355.0,4339.0
1579,3547.0,3355.0,4339.0
1580,3547.0,3355.0,4339.0
1581,6738.0,3355.0,4339.0
1582,6738.0,3355.0,4339.0
1583,6738.0,3355.0,4339.0
1584,6738.0,3355.0,4339.0
1585,6738.0,3355.0,4339.0
1586,6738.0,3355.0,4339.0
1587,6738.0,3355.0,4339.0
1588,6738.0,3355.0,4339.0
1589,6738.0,3355.0,4339.0
1590,6738.0,3355.0,4339.0
1591,6738.0,3355.0,4339.0
1592,6738.0,3355.0,4339.0
1593,6738.0,3355.0,4339.0
1594,6738.0,3355.0,4339.0
1595,6738.0,3355.0,4339.0
1596,6738.0,3355.0,4339.0
1597,6738.0,3355.0,4339.0
1598,6738.0,3355.0,4339.0
1599,6738.0,3355.0,4339.0
1600,6738.0,3355.0,4339.0
1601,6738.0,3355.0,4339.0
1602,6738.0,3355.0,4339.0
1603,6738.0,3355.0,4339.0
1604,6738.0,3355.0,4339.0
1605,6738.0,3355.0,2189.0
1606,6738.0,3355.0,2189.0
1607,6738.0,3355.0,4608.0
1608,6738.0,3355.0,4608.0
1609,6738.0,3355.0,4608.0
1610,6738.0,3355.0,4608.0
1611,6738.0,3355.0,4608.0
1612,6738.0,3355.0,4608.0
1613,6738.0,3993.0,4608.0
1766,4725.0,3803.0,2650.0
1767,4725.0,3803.0,2650.0
1768,4725.0,3803.0,2650.0
1769,4725.0,3803.0,2650.0
1770,4725.0,3803.0,2650.0
1771,4725.0,3803.0,2650.0
1772,4725.0,3803.0,3415.0
1773,4725.0,1853.0,3415.0
1774,4725.0,1853.0,3415.0
1775,4725.0,3304.0,3415.0
1776,4725.0,3304.0,3415.0
1777,4725.0,3304.0,3415.0
1778,4725.0,3304.0,3415.0
1779,4725.0,3304.0,3415.0
1780,4725.0,3304.0,3415.0
1781,5432.0,3304.0,2999.0
1782,5432.0,3304.0,4326.0
1783,5432.0,3304.0,4326.0
1784,5432.0,3304.0,1224.0
1785,5432.0,3304.0,1224.0
1786,5432.0,3304.0,2045.0
1787,6769.0,3304.0,2045.0
1788,6769.0,3304.0,2977.0
1789,6769.0,3304.0,2977.0
1790,6769.0,3465.0,2977.0
1791,6769.0,4375.0,2977.0
1792,6769.0,2695.0,2977.0
1793,6769.0,2695.0,2977.0
1794,6769.0,2695.0,2977.0
1795,6769.0,1647.0,2977.0
1796,6769.0,1647.0,2977.0
1797,6769.0,1647.0,2977.0
1798,6769.0,1647.0,2977.0
1799,6769.0,1647.0,2977.0
1800,6769.0,1647.0,2078.0
1801,6769.0,1647.0,2078.0
1802,6769.0,1647.0,2078.0
1803,6769.0,1647.0,2078.0
1804,46.0,1647.0,2078.0
1805,3947.0,1647.0,2078.0
1806,3947.0,1647.0,5886.0
1807,3947.0,1647.0,5886.0
1808,3947.0,1647.0,5886.0
1809,3947.0,1526.0,5886.0
1810,3947.0,1526.0,5886.0
1811,3472.0,1526.0,5886.0
1812,3472.0,1194.0,4047.0
1813,3472.0,1194.0,4047.0
1814,1714.0,1620.0,4047.0
1815,1714.0,1620.0,4203.0
1816,1714.0,1620.0,4203.0
1817,4895.0,1620.0,4203.0
1818,4895.0,1620.0,4203.0
1819,4333.0,1620.0,4203.0
1820,4333.0,1620.0,4203.0
1821,3764.0,1620.0,4203.0
1822,3764.0,1620.0,4203.0
1823,2643.0,1620.0,4203.0
1824,2643.0,1620.0,4203.0
1825,2643.0,1874.0,4203.0
1826,2643.0,1874.0,4203.0
1827,2643.0,1874.0,4203.0
1828,4798.0,1874.0,4203.0
1829,4798.0,1874.0,4203.0
1830,4384.0,1874.0,4203.0
1831,4384.0,846.0,4203.0
1832,4384.0,846.0,4203.0
1833,4384.0,846.0,5814.0
1834,4384.0,846.0,2576.0
1835,4384.0,3831.0,2576.0
1836,4384.0,3831.0,2576.0
1837,5616.0,903.0,2576.0
1838,5616.0,903.0,2576.0
1839,390.0,903.0,2576.0
1840,561616.0,903.0,3901.0
1841,5616.0,903.0,3901.0
1842,5616.0,903.0,1730.0
1843,5616.0,903.0,1730.0
1844,2249.0,903.0,1730.0
1845,2249.0,903.0,1730.0
1846,2249.0,903.0,1730.0
1847,2249.0,3105.0,1730.0
1848,2249.0,3105.0,1730.0
1849,2249.0,3105.0,1730.0
1850,5734.0,3105.0,1730.0
1851,5734.0,3105.0,1730.0
1852,5734.0,3105.0,1730.0
1853,5734.0,3105.0,1730.0
1854,5734.0,3105.0,1730.0
1855,5734.0,3105.0,1730.0
1856,5734.0,2360.0,2409.0
1857,6540.0,2360.0,2409.0
1858,6540.0,2360.0,2409.0
1859,6540.0,2360.0,4620.0
1860,6540.0,2360.0,4620.0
1861,6540.0,4368.0,4497.0
1862,6540.0,4368.0,4497.0
1863,6540.0,4368.0,4497.0
1864,6540.0,4368.0,4497.0
1865,6540.0,4368.0,4497.0
1866,6540.0,4368.0,3915.0
1867,6540.0,4368.0,3118.0
1868,6540.0,4368.0,3118.0
1869,6540.0,2297.0,3118.0
1870,66540.0,2297.0,5540.0
1871,6304.0,2297.0,5540.0
1872,6304.0,1565.0,5540.0
1873,6304.0,1565.0,5540.0
1874,3118.0,2320.0,5540.0
1875,4818.0,2320.0,5540.0
1876,4818.0,2320.0,3097.0
1877,4818.0,2320.0,3097.0
1878,4818.0,2320.0,3097.0
1879,4818.0,2320.0,3097.0
1880,4818.0,2320.0,3097.0
1881,4818.0,2320.0,1576.0
1882,4818.0,2320.0,1576.0
1883,4818.0,2320.0,1576.0
1884,4818.0,2320.0,4986.0
1885,4818.0,2320.0,2595.0
1886,4818.0,2320.0,2595.0
1887,4818.0,2320.0,2595.0
1888,4818.0,2177.0,2595.0
1889,4818.0,2504.0,2595.0
1890,4818.0,2504.0,2595.0
1891,4818.0,2504.0,3520.0
1892,4818.0,2504.0,3943.0
1893,2356.0,2504.0,3943.0
2026,6375.0,5174.0,2316.0
2027,6375.0,5174.0,2316.0
2028,6375.0,5174.0,2316.0
2029,3425.0,5174.0,2316.0
2030,3425.0,5174.0,2316.0
2031,3425.0,5174.0,2316.0
2032,6265.0,1456.0,2316.0
2033,3273.0,1456.0,2316.0
2034,6323.0,1456.0,1805.0
2035,6323.0,1456.0,1805.0
2036,6323.0,1456.0,3846.0
2037,6323.0,1177.0,3846.0
2038,6323.0,1177.0,3846.0
2039,6323.0,4967.0,3846.0
2040,6323.0,4967.0,3846.0
2041,6323.0,4967.0,3846.0
2042,4514.0,4967.0,3846.0
2043,4514.0,4967.0,3846.0
2044,4514.0,2727.0,2767.0
2045,4514.0,2727.0,2767.0
2046,4514.0,2727.0,2767.0
2047,4514.0,2727.0,2767.0
2048,4514.0,2727.0,3228.0
2049,4514.0,2727.0,3228.0
2050,4073.0,2727.0,3228.0
2051,4073.0,3334.0,3228.0
2052,4073.0,3334.0,3228.0
2053,4073.0,3337.0,3228.0
2054,4073.0,3337.0,3228.0
2055,4073.0,3337.0,3228.0
2056,4073.0,3337.0,3228.0
2057,4073.0,3337.0,3228.0
2058,4073.0,1838.0,3228.0
2059,4073.0,1838.0,3228.0
2060,4073.0,1838.0,3228.0
2061,4073.0,1838.0,3228.0
2062,4073.0,1838.0,3228.0
2063,4073.0,1557.0,3228.0
2064,4073.0,1557.0,3228.0
2065,3155.0,1557.0,4934.0
2066,3155.0,1557.0,4934.0
2067,3463.0,1557.0,4934.0
2068,3463.0,1557.0,4934.0
2069,3463.0,1557.0,4934.0
2070,3463.0,1557.0,4934.0
2071,3463.0,1557.0,4934.0
2072,8419.0,1557.0,4934.0
2073,8419.0,1479.0,4934.0
2074,4146.0,1479.0,4934.0
2075,4146.0,1479.0,3896.0
2076,4146.0,1479.0,2367.0
2077,4146.0,1479.0,3156.0
2078,4146.0,1479.0,3156.0
2079,4146.0,1479.0,3156.0
2080,4146.0,1479.0,3156.0
2081,4146.0,1924.0,3156.0
2082,4146.0,1924.0,3156.0
2083,4146.0,1924.0,3156.0
2084,4146.0,1924.0,3156.0
2085,4146.0,1924.0,2580.0
2086,4146.0,1924.0,2580.0
2087,2418.0,1924.0,2580.0
2088,2418.0,1924.0,2580.0
2089,5343.0,1924.0,2580.0
2090,5343.0,3511.0,2580.0
2091,5343.0,3511.0,2580.0
2092,5343.0,3511.0,2580.0
2093,5343.0,3511.0,2580.0
2094,5343.0,3511.0,2580.0
2095,5343.0,3511.0,2580.0
2096,5343.0,5319.0,2580.0
2097,5343.0,5319.0,2580.0
2098,5343.0,1650.0,2580.0
2099,5343.0,3285.0,2580.0
2100,5343.0,1856.0,4863.0
2101,5343.0,1856.0,2450.0
2102,5343.0,1856.0,3294.0
2103,5575.0,1839.0,3294.0
2104,5575.0,1839.0,4672.0
2105,5575.0,1839.0,4672.0
2106,5236.0,1839.0,4672.0
2107,5236.0,1839.0,3252.0
2108,5236.0,1839.0,3252.0
2109,5236.0,1837.0,1903.0
2110,5236.0,1837.0,1903.0
2111,5236.0,1837.0,1903.0
2112,5236.0,1837.0,1903.0
2113,4942.0,1837.0,1903.0
2114,4942.0,1837.0,1903.0
2115,3914.0,1837.0,1903.0
2116,4652.0,1837.0,1903.0
2117,4652.0,1837.0,1903.0
2118,4652.0,1837.0,1903.0
2119,4652.0,1837.0,1551.0
2120,4652.0,1837.0,1551.0
2121,4652.0,2472.0,1551.0
2122,3678.0,2472.0,1551.0
2123,3678.0,2472.0,1551.0
2124,3678.0,2472.0,1551.0
2125,3678.0,2472.0,1551.0
2126,3678.0,2472.0,1551.0
2127,3678.0,2472.0,1551.0
2128,3678.0,2472.0,1551.0
2129,3678.0,2472.0,1551.0
2130,3678.0,2472.0,1551.0
2131,3505.0,2472.0,1551.0
2132,3179.0,2472.0,1551.0
2133,3179.0,2472.0,1551.0
2134,4495.0,2472.0,1551.0
2135,4495.0,2472.0,1551.0
2136,3223.0,2472.0,1551.0
2137,3223.0,2472.0,1551.0
2138,4305.0,2472.0,1551.0
2139,7746.0,2472.0,1551.0
2140,7746.0,2472.0,1551.0
2141,7746.0,2472.0,1551.0
2142,7746.0,2472.0,5362.0
2143,7746.0,2472.0,2493.0
2144,7746.0,2472.0,2493.0
2145,7746.0,2472.0,2493.0
2146,7746.0,2472.0,2493.0
2147,7746.0,2472.0,2503.0
2148,7746.0,2472.0,2503.0
2149,7746.0,2472.0,2503.0
2150,6851.0,2472.0,3752.0
2151,6851.0,2472.0,3869.0
2152,6851.0,2472.0,3869.0
2153,6851.0,2472.0,3869.0
2154,6851.0,2472.0,3888.0
2155,6851.0,1888.0,4530.0
2156,6851.0,1888.0,4530.0
2157,4261.0,1888.0,4530.0
2158,4261.0,1888.0,4530.0
2159,5329.0,1888.0,4530.0
2160,5329.0,1888.0,4530.0
2161,5329.0,1888.0,4530.0
2162,5329.0,1888.0,4530.0
2163,5340.0,1888.0,4530.0
2164,5340.0,1888.0,4530.0
2165,5340.0,1888.0,4530.0
2166,5340.0,1888.0,4530.0
2167,5340.0,1888.0,3356.0
2168,5340.0,1888.0,3356.0
2169,4646.0,1888.0,3356.0
2297,4740.0,3865.0,4439.0
2298,4740.0,3865.0,7412.0
2299,4740.0,3865.0,7412.0
2300,5907.0,3865.0,7412.0
2301,5907.0,3865.0,7412.0
2302,5907.0,3865.0,2993.0
2303,5907.0,3865.0,2993.0
2304,5907.0,3865.0,1528.0
2305,5907.0,3865.0,5825.0
2306,5907.0,3865.0,5825.0
2307,5907.0,3865.0,3081.0
2308,5907.0,3865.0,3081.0
2309,5907.0,3865.0,4201.0
2310,5907.0,3865.0,3316.0
2311,5207.0,3865.0,3316.0
2312,5207.0,3865.0,3316.0
2313,5207.0,3520.0,3316.0
2314,5207.0,3520.0,3316.0
2315,3471.0,3520.0,3316.0
2316,3471.0,3520.0,3316.0
2317,3471.0,3520.0,4046.0
2318,3471.0,3520.0,4046.0
2319,3471.0,3520.0,4046.0
2320,3471.0,3520.0,4046.0
2321,3471.0,3520.0,4046.0
2322,3471.0,3520.0,4046.0
2323,3471.0,3520.0,4046.0
2324,3471.0,3520.0,4046.0
2325,30.0,3520.0,4046.0
2326,5691.0,3520.0,4046.0
2327,5691.0,3520.0,4046.0
2328,5691.0,3520.0,4046.0
2329,3558.0,3520.0,4046.0
2330,3558.0,3520.0,4046.0
2331,5173.0,3520.0,4046.0
2332,5173.0,3520.0,4046.0
2333,5173.0,3520.0,4383.0
2334,5173.0,3520.0,4383.0
2335,5173.0,3520.0,4383.0
2336,5173.0,1191.0,4383.0
2337,173.0,1191.0,4383.0
2338,55173.0,1191.0,4383.0
2339,5173.0,1191.0,2629.0
2340,5173.0,1191.0,2629.0
2341,5173.0,1191.0,2629.0
2342,5173.0,1191.0,2629.0
2343,5173.0,1191.0,2629.0
2344,5173.0,1191.0,2871.0
2345,5173.0,1191.0,2871.0
2346,5173.0,1191.0,2352.0
2347,5173.0,1191.0,4139.0
2348,5173.0,1191.0,3016.0
2349,5173.0,1191.0,4779.0
2350,5173.0,1191.0,3485.0
2351,5173.0,1191.0,3485.0
2352,5173.0,1191.0,3485.0
2353,5173.0,1191.0,3485.0
2354,5173.0,1191.0,3956.0
2355,5173.0,1191.0,3956.0
2356,5173.0,1191.0,3956.0
2357,5173.0,1191.0,3956.0
2358,5173.0,1191.0,1702.0
2359,5173.0,1191.0,1702.0
2360,5173.0,1191.0,1702.0
2361,7240.0,1191.0,1702.0
2362,6961.0,1191.0,7938.0
2363,6961.0,1191.0,7938.0
2364,6961.0,1191.0,7938.0
2365,5970.0,1191.0,7938.0
2366,5970.0,1191.0,7938.0
2367,9602.0,1191.0,7938.0
2368,7028.0,1191.0,7938.0
2369,7028.0,1191.0,7938.0
2370,7028.0,1191.0,7938.0
2371,7028.0,1191.0,7938.0
2372,7028.0,1191.0,7938.0
2373,7122.0,1191.0,7938.0
2374,4390.0,1191.0,7938.0
2375,5854.0,1191.0,7938.0
2376,2577.0,1191.0,7938.0
2377,2577.0,1191.0,7938.0
2378,2577.0,1191.0,7938.0
2379,2577.0,1191.0,7938.0
2380,3922.0,1191.0,1460.0
2381,3922.0,1191.0,1460.0
2382,3922.0,1191.0,4661.0
2383,3922.0,1191.0,3372.0
2384,5086.0,1191.0,3372.0
2385,5086.0,1191.0,3372.0
2386,5086.0,1191.0,3372.0
2387,5086.0,1191.0,3372.0
2388,5086.0,1191.0,3372.0
2389,5086.0,1191.0,3372.0
2390,5086.0,1191.0,3372.0
2391,3349.0,1191.0,3372.0
2392,3349.0,1191.0,3372.0
2393,3349.0,1191.0,3372.0
2394,3349.0,1191.0,3878.0
2395,3349.0,1191.0,3878.0
2396,3349.0,1191.0,3878.0
2397,3349.0,1191.0,3878.0
2398,3349.0,1191.0,3878.0
2399,3349.0,1191.0,3878.0
2400,3349.0,1191.0,3878.0
2401,3349.0,1191.0,3878.0
2402,3349.0,1191.0,3878.0
2403,3349.0,1191.0,3878.0
2404,3349.0,1191.0,3878.0
2405,3349.0,1191.0,3878.0
2406,3191.0,1191.0,3878.0
2407,3191.0,1191.0,3878.0
2408,3191.0,1191.0,3878.0
2409,3191.0,1191.0,3878.0
2410,3191.0,1191.0,3878.0
2411,3191.0,1191.0,3878.0
2412,3191.0,1191.0,3878.0
2413,3069.0,1191.0,3878.0
2414,3714.0,1191.0,3878.0
2415,2925.0,1191.0,3878.0
2416,2925.0,1191.0,3878.0
2417,2925.0,1191.0,3878.0
2418,2925.0,1191.0,3878.0
2419,2925.0,2353.0,5622.0
2420,2925.0,2353.0,5622.0
2421,2925.0,2353.0,5622.0
2422,2925.0,2353.0,5622.0
2423,2925.0,2649.0,2991.0
2424,2925.0,2649.0,2629.0
2425,2925.0,2649.0,2629.0
2426,2925.0,2649.0,3673.0
2427,2925.0,2649.0,2295.0
2428,2925.0,2649.0,2094.0
2429,2925.0,2649.0,2094.0
2430,2925.0,2649.0,2094.0
2431,3213.0,1941.0,2094.0
2432,4754.0,1941.0,2094.0
2433,6052.0,1941.0,2094.0
2434,6052.0,1941.0,2094.0
2435,6052.0,1941.0,2094.0
2436,6052.0,1941.0,2094.0
2437,6052.0,1941.0,2094.0
2438,6052.0,1941.0,2094.0
2574,7626.0,626.0,3170.0
2575,7626.0,3170626.0,3170.0
2576,7626.0,2536.0,2568.0
2577,7626.0,2536.0,2568.0
2578,3932.0,2536.0,3555.0
2579,3932.0,2536.0,3555.0
2580,3932.0,2536.0,3555.0
2581,3932.0,4256.0,3555.0
2582,4994.0,4256.0,3445.0
2583,4994.0,1665.0,3445.0
2584,4994.0,1665.0,3445.0
2585,4994.0,1665.0,1629.0
2586,49942924.0,1665.0,1629.0
2587,29924.0,1665.0,1583.0
2588,2924.0,1665.0,1583.0
2589,2924.0,1665.0,1583.0
2590,2924.0,1665.0,1583.0
2591,2924.0,4097.0,1583.0
2592,2924.0,2707.0,1583.0
2593,2924.0,4640.0,1583.0
2594,2924.0,4640.0,1583.0
2595,2924.0,4640.0,1583.0
2596,2924.0,4136.0,1583.0
2597,2924.0,4136.0,1583.0
2598,4580.0,4136.0,1583.0
2599,3272.0,4136.0,1583.0
2600,3272.0,5550.0,1583.0
2601,3272.0,5550.0,1583.0
2602,6083.0,5550.0,1583.0
2603,6083.0,5550.0,1583.0
2604,6083.0,5550.0,1583.0
2605,6083.0,2174.0,1583.0
2606,3727.0,2174.0,1583.0
2607,3727.0,2174.0,1583.0
2608,3727.0,2174.0,1583.0
2609,4730.0,2174.0,1583.0
2610,4730.0,2174.0,1583.0
2611,4730.0,2174.0,1206.0
2612,4730.0,3230.0,1206.0
2613,4730.0,3147.0,1206.0
2614,4730.0,3147.0,1206.0
2615,4730.0,3147.0,1206.0
2616,4730.0,3147.0,1206.0
2617,4730.0,3147.0,2431.0
2618,4730.0,3147.0,2431.0
2619,4730.0,3147.0,2431.0
2620,4730.0,3147.0,2431.0
2621,4730.0,3147.0,2431.0
2622,4730.0,3147.0,2431.0
2623,4730.0,3147.0,2431.0
2624,2017.0,3147.0,2431.0
2625,2017.0,3147.0,2431.0
2626,2017.0,3147.0,2431.0
2627,2017.0,3147.0,2431.0
2628,2017.0,3147.0,2345.0
2629,2017.0,3147.0,2345.0
2630,2017.0,3147.0,3323.0
2631,2017.0,3147.0,3323.0
2632,2017.0,3147.0,3323.0
2633,2017.0,3147.0,3323.0
2634,2017.0,3147.0,3323.0
2635,2017.0,3147.0,3323.0
2636,2017.0,3147.0,3323.0
2637,2017.0,3147.0,3323.0
2638,7994.0,3147.0,3323.0
2639,2092.0,4505.0,3323.0
2640,2092.0,4505.0,3323.0
2641,2092.0,4505.0,3323.0
2642,2092.0,4505.0,3323.0
2643,2092.0,4505.0,3323.0
2644,2092.0,4505.0,3323.0
2645,2092.0,3687.0,1587.0
2646,2092.0,3687.0,1587.0
2647,2092.0,3687.0,1587.0
2648,2092.0,3687.0,1587.0
2649,1950.0,3687.0,1587.0
2650,1950.0,3687.0,1587.0
2651,1950.0,3687.0,1587.0
2652,1950.0,3687.0,1587.0
2653,1950.0,3687.0,1587.0
2654,1950.0,3687.0,1587.0
2655,1950.0,3687.0,1587.0
2656,1950.0,3687.0,1587.0
2657,1950.0,6190.0,1587.0
2658,1950.0,6190.0,1587.0
2659,6655.0,6190.0,1587.0
2660,2586655.0,6190.0,1587.0
2661,8687.0,6190.0,2468.0
2662,8687.0,6190.0,2468.0
2663,1613.0,6190.0,2468.0
2664,1613.0,3952.0,2468.0
2665,1613.0,3952.0,2468.0
2666,1613.0,3952.0,1920.0
2667,1613.0,3952.0,1920.0
2668,1613.0,5950.0,1920.0
2669,3479.0,5950.0,1920.0
2670,3479.0,1591.0,1920.0
2671,3479.0,1591.0,1920.0
2672,3479.0,1591.0,1920.0
2810,2575.0,3453.0,2128.0
2811,2575.0,3453.0,2128.0
2812,2575.0,3453.0,2128.0
2813,3016.0,3453.0,2128.0
2814,4200.0,3453.0,3284.0
2815,3452.0,3453.0,3284.0
2816,3452.0,3453.0,3284.0
2817,3452.0,4144.0,3284.0
2818,3.0,4144.0,3284.0
2819,5756.0,4144.0,1878.0
2820,5756.0,4144.0,1878.0
2821,5756.0,4144.0,2827.0
2822,5756.0,4144.0,2827.0
2823,5756.0,4144.0,2827.0
2824,5756.0,4144.0,1663.0
2825,4828.0,4144.0,1663.0
2826,4828.0,4144.0,2585.0
2827,4828.0,4144.0,2585.0
2828,4828.0,4144.0,2585.0
2829,4828.0,4144.0,2585.0
2830,4828.0,2241.0,2585.0
2831,4828.0,2241.0,2585.0
2832,4828.0,2241.0,2585.0
2833,4828.0,2241.0,2585.0
2834,4828.0,2241.0,2585.0
2835,4828.0,2241.0,2585.0
2836,4828.0,2241.0,2585.0
2837,4828.0,2241.0,2585.0
2838,4828.0,2241.0,2585.0
2839,5308.0,2241.0,2585.0
2840,5308.0,2241.0,2585.0
2841,5308.0,2241.0,2585.0
2842,5308.0,2241.0,2585.0
2843,5308.0,2241.0,1466.0
2844,5308.0,2241.0,1466.0
2845,5308.0,3021.0,1466.0
2846,5308.0,3021.0,1466.0
2847,5308.0,3021.0,1466.0
2848,5308.0,3021.0,1466.0
2849,5308.0,3021.0,1466.0
2850,5308.0,3021.0,1466.0
2851,5308.0,3021.0,1466.0
2852,5308.0,2489.0,2272.0
2853,5308.0,2489.0,2272.0
2854,5308.0,2489.0,2443.0
2855,5308.0,2489.0,2443.0
2856,5308.0,2489.0,2443.0
2857,5308.0,2489.0,2443.0
2858,5308.0,2491.0,2443.0
2859,5308.0,3843.0,2443.0
2860,5308.0,3843.0,2443.0
2861,5308.0,3843.0,2443.0
2862,5308.0,3485.0,2443.0
2863,5308.0,3485.0,2443.0
2864,3208.0,3485.0,2443.0
2865,3208.0,3485.0,2443.0
2866,3208.0,3485.0,2443.0
2867,3208.0,4872.0,2443.0
2868,3208.0,4872.0,2443.0
2869,3208.0,4872.0,2443.0
2870,3208.0,4179.0,2443.0
2871,3208.0,4179.0,2443.0
2872,3208.0,5114.0,2443.0
2873,3208.0,5114.0,2443.0
2874,3208.0,5114.0,2443.0
2875,3208.0,5114.0,2443.0
2876,3208.0,5114.0,2443.0
2877,3208.0,5114.0,2443.0
2878,3208.0,5114.0,2443.0
2879,3208.0,5114.0,2443.0
2880,3208.0,5114.0,2443.0
2881,3208.0,5114.0,2443.0
2882,3208.0,5114.0,2443.0
2883,3208.0,5592.0,2443.0
2884,3208.0,5592.0,2443.0
2885,3208.0,5592.0,2443.0
2886,3208.0,5592.0,2443.0
2887,3208.0,5592.0,2443.0
2888,3208.0,5592.0,2443.0
2889,3208.0,5592.0,2443.0
2890,3208.0,5592.0,2443.0
2891,3208.0,5592.0,2443.0
2892,3208.0,5592.0,2443.0
2893,3208.0,5592.0,2443.0
2894,3208.0,5592.0,2443.0
2895,3208.0,5592.0,2443.0
2896,3208.0,5592.0,2443.0
2897,3208.0,5592.0,2443.0
2898,3208.0,5592.0,2443.0
2899,3208.0,5592.0,2443.0
2900,3208.0,5592.0,2443.0
2901,3208.0,5592.0,2443.0
2902,3208.0,5592.0,2443.0
2903,3208.0,5592.0,2443.0
2904,3208.0,5592.0,2443.0
2905,3208.0,5592.0,2443.0
2906,3208.0,5592.0,2443.0
2907,3208.0,5592.0,2443.0
2908,3208.0,5592.0,2443.0
2909,3208.0,5592.0,2443.0
2910,3208.0,5592.0,2443.0
2911,3208.0,5592.0,2443.0
2912,3208.0,5592.0,2443.0
2913,2959.0,2375.0,2443.0
2914,2959.0,2375.0,2443.0
2915,3442.0,2375.0,2443.0
2916,34442.0,2375.0,2443.0
2917,3442.0,2375.0,2443.0
2918,3442.0,2375.0,2443.0
2919,3442.0,3869.0,2443.0
2920,3442.0,3869.0,2443.0
2921,3442.0,3279.0,2443.0
2922,3442.0,3279.0,2443.0
2923,3442.0,3279.0,2443.0
2924,3442.0,3279.0,2443.0
2925,3442.0,2105.0,2443.0
2926,3442.0,4805.0,2443.0
2927,3442.0,2494.0,2443.0
2928,3442.0,2860.0,2443.0
2929,3442.0,2860.0,2443.0
2930,3442.0,3378.0,2443.0
2931,3442.0,3378.0,2443.0
2932,3442.0,2931.0,2443.0
2933,3442.0,2931.0,2443.0
2934,3442.0,2931.0,2443.0
2935,3442.0,2931.0,2443.0
2936,3442.0,2931.0,2443.0
2937,3442.0,2931.0,2443.0
2938,3442.0,4216.0,2443.0
2939,3442.0,4216.0,2443.0
2940,3442.0,4216.0,2443.0
2941,3442.0,3699.0,2443.0
2942,3442.0,3699.0,2477.0
3079,2516.0,3968.0,3972.0
3080,46200.0,3968.0,1909.0
3081,2516.0,3968.0,1909.0
3082,2516.0,3968.0,1909.0
3083,2516.0,3968.0,1909.0
3084,2516.0,3968.0,1909.0
3085,2516.0,3968.0,1909.0
3086,2516.0,3968.0,1909.0
3087,2516.0,3968.0,1909.0
3088,2516.0,3968.0,1909.0
3089,2516.0,2719.0,1909.0
3090,2516.0,3226.0,1909.0
3091,2516.0,3226.0,1909.0
3092,2516.0,3653.0,1909.0
3093,2516.0,3653.0,1909.0
3094,2516.0,3442.0,1909.0
3095,2516.0,4319.0,1909.0
3096,2516.0,5154.0,1909.0
3097,2516.0,6660.0,1909.0
3098,3660.0,6660.0,1909.0
3099,3660.0,6660.0,1909.0
3100,3660.0,2927.0,1909.0
3101,3660.0,2927.0,1909.0
3102,3660.0,2200.0,1909.0
3103,3660.0,7616.0,1909.0
3104,3660.0,4307.0,1909.0
3105,2131.0,4307.0,1909.0
3106,2131.0,3054.0,779.0
3107,2131.0,3054.0,779.0
3108,2131.0,3054.0,779.0
3109,2131.0,3054.0,779.0
3110,2131.0,3054.0,779.0
3111,2131.0,3054.0,1342.0
3112,2131.0,3054.0,1342.0
3113,2131.0,6399.0,2978.0
3114,2131.0,6399.0,2978.0
3115,2131.0,6399.0,2978.0
3116,2131.0,6399.0,2978.0
3117,2131.0,6399.0,2978.0
3118,2131.0,6399.0,5078.0
3119,2131.0,6399.0,2076.0
3120,2131.0,6399.0,2216.0
3121,2131.0,6399.0,2216.0
3122,2131.0,6399.0,2216.0
3123,2131.0,6399.0,2216.0
3124,2131.0,6399.0,2216.0
3125,3962.0,6399.0,2216.0
3126,2.0,6399.0,2216.0
3127,3962.0,6399.0,2216.0
3128,3962.0,2340.0,2216.0
3129,3962.0,2340.0,2216.0
3130,3962.0,2340.0,2216.0
3131,7167.0,2340.0,2216.0
3132,7167.0,2340.0,2216.0
3133,5946.0,2340.0,2216.0
3134,5946.0,2340.0,2216.0
3135,4909.0,2340.0,2216.0
3136,15120.0,2340.0,2216.0
3137,2771.0,2340.0,5281.0
3138,2771.0,2340.0,5281.0
3139,6427.0,2340.0,5281.0
3140,1524.0,2340.0,5281.0
3141,1524.0,2340.0,5281.0
3142,1524.0,2340.0,5281.0
3143,1524.0,2340.0,5281.0
3144,1524.0,2340.0,5281.0
3145,1524.0,2340.0,5281.0
3146,1524.0,2340.0,5281.0
3147,1524.0,2340.0,3201.0
3148,1524.0,2340.0,3201.0
3149,1524.0,2340.0,3201.0
3150,1524.0,2340.0,3201.0
3151,1524.0,2340.0,2808.0
3152,1524.0,2340.0,2808.0
3153,1524.0,4543.0,2808.0
3154,1524.0,4543.0,2808.0
3155,1524.0,3408.0,2808.0
3156,1524.0,3356.0,2808.0
3157,1524.0,4513.0,2808.0
3158,1524.0,4513.0,2808.0
3159,1524.0,4513.0,2808.0
3160,1524.0,4513.0,2808.0
3161,1524.0,4513.0,2808.0
3162,1524.0,4513.0,2808.0
3163,1524.0,4513.0,2146.0
3164,1524.0,4513.0,2146.0
3165,1524.0,4513.0,1391.0
3166,1524.0,4513.0,1391.0
3167,4336.0,4513.0,1391.0
3168,4336.0,4513.0,1391.0
3169,3679.0,4513.0,1391.0
3170,3679.0,4513.0,1391.0
3171,3679.0,4513.0,1391.0
3172,3679.0,4513.0,2038.0
3173,3679.0,4513.0,2038.0
3174,3679.0,4513.0,2038.0
3175,3679.0,4513.0,2038.0
3176,3679.0,4513.0,2038.0
3177,3679.0,4513.0,2038.0
3178,3679.0,4513.0,2038.0
3179,6160184.0,23.0,1876.0
3180,3760.0,995.0,2295.0
3181,3760.0,995.0,3719.0
3182,3760.0,995.0,3719.0
3183,3760.0,995.0,3719.0
3184,3760.0,995.0,3719.0
3185,3760.0,995.0,1670.0
3186,3760.0,995.0,1670.0
3187,3760.0,995.0,2217.0
3188,3760.0,995.0,2217.0
3189,3760.0,995.0,2217.0
3190,3760.0,995.0,2217.0
3191,3760.0,995.0,2217.0
3192,3760.0,995.0,2217.0
3193,3760.0,995.0,2217.0
3194,4254.0,995.0,2217.0
3195,4254.0,995.0,2217.0
3196,4254.0,995.0,2217.0
3197,5540.0,995.0,2217.0
3198,5540.0,995.0,2217.0
3199,5540.0,995.0,2217.0
3200,5540.0,995.0,2217.0
3201,5540.0,995.0,2217.0
3202,5540.0,995.0,2217.0
3203,4364.0,995.0,2217.0
3204,4364.0,995.0,2217.0
3205,4364.0,995.0,2217.0
3206,4364.0,995.0,2217.0
3207,4364.0,995.0,2217.0
3208,4364.0,995.0,2217.0
3209,4364.0,995.0,2217.0
3210,3280.0,995.0,3279.0
3211,3280.0,995.0,3279.0
3212,3280.0,3630.0,3279.0
3213,3280.0,3630.0,3279.0
3214,3280.0,3630.0,3279.0
3215,3280.0,3630.0,3279.0
3216,3280.0,3630.0,3279.0
3217,3280.0,3630.0,3279.0
3218,6719.0,3630.0,3279.0
3360,5223.0,2523.0,4307.0
3361,4419.0,2523.0,4307.0
3362,4419.0,5314.0,4307.0
3363,4419.0,5314.0,4599.0
3364,4419.0,4330.0,4599.0
3365,4419.0,4166.0,4599.0
3366,4419.0,4166.0,4599.0
3367,4419.0,2206.0,4599.0
3368,4419.0,2206.0,4599.0
3369,4419.0,4982.0,4599.0
3370,4419.0,4982.0,4599.0
3371,4419.0,4982.0,4599.0
3372,4419.0,3176.0,4599.0
3373,4419.0,3176.0,4599.0
3374,4419.0,2074.0,4599.0
3375,4419.0,2074.0,4599.0
3376,4419.0,3357.0,4599.0
3377,2473.0,3357.0,4599.0
3378,2473.0,3357.0,4599.0
3379,3817.0,3357.0,4599.0
3380,4480.0,3357.0,4599.0
3381,2592.0,3357.0,2916.0
3382,441754.0,3357.0,2916.0
3383,4611.0,3357.0,3955.0
3384,4611.0,3357.0,2154.0
3385,4611.0,3357.0,1404.0
3386,4611.0,3357.0,1404.0
3387,4611.0,3357.0,1960.0
3388,4611.0,3357.0,1960.0
3389,680.0,2871.0,1960.0
3390,680.0,2871.0,2789.0
3391,2639.0,2929.0,2789.0
3392,5299.0,2929.0,2789.0
3393,5216.0,2929.0,2789.0
3394,5216.0,2929.0,2789.0
3395,5216.0,3052.0,2789.0
3396,5216.0,3052.0,2789.0
3397,5216.0,3052.0,2789.0
3398,5216.0,3052.0,2789.0
3399,5216.0,3052.0,2789.0
3400,5216.0,3052.0,2789.0
3401,5216.0,3052.0,2789.0
3402,5216.0,3273.0,2789.0
3403,5216.0,3273.0,1233.0
3404,5216.0,3273.0,1233.0
3405,5216.0,3273.0,1233.0
3406,5216.0,3273.0,1233.0
3407,5216.0,3273.0,2669.0
3408,5216.0,3273.0,2669.0
3409,5216.0,3273.0,3330.0
3410,5216.0,3273.0,3330.0
3411,5216.0,3273.0,918.0
3412,5216.0,3273.0,918.0
3413,5216.0,3273.0,918.0
3414,5216.0,3273.0,918.0
3415,5216.0,3273.0,918.0
3416,5216.0,3273.0,918.0
3417,5216.0,3273.0,918.0
3418,5216.0,3273.0,918.0
3419,5216.0,3273.0,918.0
3420,5216.0,3273.0,918.0
3421,5216.0,3273.0,918.0
3422,5216.0,3273.0,918.0
3423,5216.0,3273.0,918.0
3424,5216.0,3273.0,918.0
3425,520.0,3273.0,918.0
3426,52165216.0,3273.0,918.0
3427,5216.0,3273.0,918.0
3428,5216.0,3273.0,918.0
3429,5216.0,3273.0,1574.0
3430,5216.0,3273.0,1574.0
3431,5216.0,3273.0,1574.0
3432,5386.0,3273.0,1574.0
3433,5386.0,3273.0,1574.0
3434,5386.0,3273.0,1574.0
3435,5386.0,3273.0,1574.0
3436,5386.0,3273.0,1574.0
3437,3198.0,3273.0,1574.0
3438,3198.0,3273.0,1574.0
3439,3198.0,3273.0,1574.0
3440,4932.0,3273.0,1574.0
3441,4932.0,3273.0,1574.0
3442,4932.0,3273.0,1574.0
3443,4932.0,3273.0,1574.0
3444,4932.0,3273.0,1574.0
3445,4932.0,3273.0,1574.0
3446,4932.0,3273.0,1574.0
3447,4932.0,3273.0,1574.0
3448,4932.0,3273.0,1574.0
3449,4932.0,3273.0,1574.0
3450,4932.0,3273.0,1574.0
3451,5232.0,3273.0,1574.0
3452,5232.0,3273.0,1574.0
3453,5232.0,3273.0,1574.0
3454,5232.0,3273.0,1574.0
3455,5232.0,3273.0,1574.0
3456,5232.0,3273.0,4648.0
3457,5232.0,3273.0,4648.0
3458,5232.0,3273.0,3822.0
3459,5232.0,3273.0,3822.0
3460,5232.0,3273.0,4454.0
3461,5232.0,3273.0,3543.0
3462,5232.0,3273.0,3543.0
3463,5232.0,3273.0,3543.0
3464,5232.0,3273.0,3543.0
3465,5232.0,3273.0,3543.0
3466,3950.0,3273.0,3543.0
3467,3950.0,3273.0,3543.0
3468,3950.0,3591.0,3543.0
3469,3950.0,3591.0,3543.0
3470,3950.0,3591.0,3543.0
3471,3950.0,3591.0,3543.0
3472,3950.0,8328.0,3543.0
3473,3950.0,8328.0,3543.0
3474,3950.0,4971.0,3543.0
3475,3950.0,4971.0,3543.0
3476,3950.0,4971.0,3543.0
3477,7436.0,4971.0,3543.0
3478,4571.0,4971.0,3543.0
3479,3953.0,4971.0,3543.0
3480,4295.0,3109.0,3543.0
3481,4295.0,3109.0,3543.0
3482,4438.0,3109.0,3543.0
3483,4438.0,3109.0,3543.0
3484,4438.0,3109.0,3543.0
3485,4438.0,3109.0,3543.0
3486,3891.0,3109.0,3543.0
3487,30576.0,3109.0,3543.0
3488,6576.0,3109.0,3543.0
3489,6576.0,3109.0,3543.0
3633,799.0,525799.0,5257.0
3634,799.0,25.0,2534.0
3635,591.0,32217.0,3226.0
3636,1046.0,326.0,3226.0
3637,717.0,32267.0,3226.0
3638,766.0,66.0,3226.0
3641,301.0,1.0,3991.0
3642,474.0,3994.0,3991.0
3643,718.0,268.0,2689.0
3648,1556.0,556.0,2870.0
3649,845.0,3845.0,3818.0
3650,845.0,251245.0,2512.0
3651,845.0,245.0,2466.0
3653,1139.0,239.0,2966.0
3654,1139.0,214839.0,2148.0
3655,1139.0,667139.0,6671.0
3656,1101.0,254101.0,2548.0
3657,1101.0,1101.0,4250.0
3664,703.0,4281.0,2052.0
3665,703.0,4281.0,2052.0
3666,703.0,4281.0,2052.0
3667,703.0,2110.0,3006.0
3668,703.0,2110.0,3006.0
3669,703.0,2110.0,1716.0
3670,703.0,2110.0,1716.0
3671,703.0,2110.0,2827.0
3672,703.0,2110.0,2827.0
3673,703.0,2110.0,2827.0
3674,703.0,2110.0,2827.0
3675,703.0,3465.0,2827.0
3676,703.0,3465.0,2827.0
3677,703.0,3465.0,2827.0
3678,703.0,3465.0,2827.0
3679,703.0,2398.0,5810.0
3680,703.0,2398.0,5810.0
3681,703.0,2398.0,5810.0
3682,703.0,2398.0,5810.0
3683,703.0,2398.0,5810.0
3684,703.0,2398.0,5810.0
3685,670.0,2398.0,5810.0
3686,670.0,3602.0,5810.0
3687,670.0,3602.0,5810.0
3688,670.0,3602.0,5810.0
3689,670.0,3602.0,5810.0
3690,670.0,3602.0,5810.0
3691,670.0,3602.0,5810.0
3692,670.0,3602.0,5810.0
3693,670.0,3602.0,5810.0
3694,670.0,3602.0,5810.0
3695,670.0,3602.0,5810.0
3696,670.0,3602.0,5810.0
3697,670.0,3602.0,5810.0
3698,1164.0,3602.0,5810.0
3699,1164.0,2229.0,5810.0
3700,1164.0,2229.0,5810.0
3701,1164.0,2482.0,5810.0
3702,1164.0,2482.0,5810.0
3703,1164.0,2482.0,5810.0
3704,1164.0,2482.0,5810.0
3705,1164.0,2482.0,5810.0
3706,1164.0,2482.0,5810.0
3707,1164.0,2482.0,5810.0
3708,1164.0,1033.0,5810.0
3709,1164.0,1033.0,5810.0
3710,1164.0,5090.0,5810.0
3711,1164.0,5090.0,5810.0
3712,1164.0,2029.0,5810.0
3713,1164.0,2029.0,5810.0
3714,1164.0,3323.0,5810.0
3715,1164.0,3323.0,5810.0
3716,1164.0,3323.0,5810.0
3717,1164.0,3323.0,5810.0
3718,1164.0,3323.0,5810.0
3719,1164.0,3323.0,5810.0
3720,1164.0,3323.0,5810.0
3721,1164.0,3323.0,5810.0
3722,6164.0,3323.0,5810.0
3723,11164.0,3323.0,5810.0
3724,1164.0,3323.0,5810.0
3725,1164.0,3323.0,5810.0
3726,1164.0,3323.0,5810.0
3727,1164.0,3323.0,5810.0
3728,1164.0,3323.0,5810.0
3729,1164.0,3323.0,5810.0
3730,1164.0,3323.0,5810.0
3731,1164.0,3323.0,5810.0
3732,1164.0,3323.0,5810.0
3733,1164.0,3323.0,5810.0
3734,1164.0,3323.0,5810.0
3735,1164.0,3323.0,5810.0
3736,1164.0,3323.0,5810.0
3737,1164.0,3323.0,5810.0
3738,1164.0,3323.0,5810.0
3739,1164.0,3323.0,5810.0
3740,1164.0,3323.0,5810.0
3741,1164.0,3323.0,5810.0
3742,1164.0,3323.0,5810.0
3743,1164.0,3323.0,5810.0
3744,1164.0,3323.0,5810.0
3745,1164.0,3323.0,5810.0
3746,1164.0,3323.0,5810.0
3747,1164.0,3323.0,5810.0
3748,1164.0,3323.0,5810.0
3749,1164.0,3323.0,5810.0
3750,1164.0,3323.0,5810.0
3751,1164.0,3323.0,5810.0
3752,1164.0,3637.0,5810.0
3753,1164.0,3637.0,5810.0
3754,1164.0,3637.0,5810.0
3755,1164.0,3637.0,5810.0
3756,1164.0,3637.0,5810.0
3757,1164.0,3637.0,5810.0
3758,1164.0,3637.0,5810.0
3759,1164.0,3637.0,5810.0
3760,1164.0,3637.0,5810.0
3761,1164.0,3637.0,5810.0
3762,164.0,3637.0,5810.0
3763,11164.0,3637.0,5810.0
3764,1164.0,3637.0,5810.0
3765,1164.0,3637.0,5810.0
3766,1164.0,3637.0,5810.0
3767,1164.0,3637.0,5810.0
3768,1164.0,3637.0,5810.0
3769,1164.0,3637.0,5810.0
3914,775.0,1749.0,4131.0
3915,1461.0,6810.0,4131.0
3916,1461.0,6810.0,4131.0
3917,1461.0,6810.0,4131.0
3918,1461.0,6810.0,4131.0
3919,1461.0,6810.0,4131.0
3920,1461.0,6810.0,4131.0
3921,1461.0,6810.0,4131.0
3922,1461.0,6810.0,4131.0
3923,1461.0,6810.0,4131.0
3924,1461.0,6810.0,4131.0
3925,1461.0,3498.0,4131.0
3926,1461.0,3498.0,4131.0
3927,1461.0,3498.0,4131.0
3928,1461.0,3498.0,4131.0
3929,1461.0,3498.0,4131.0
3930,1461.0,3498.0,4131.0
3931,1461.0,3498.0,4131.0
3932,1461.0,3498.0,4131.0
3933,1461.0,3498.0,4131.0
3934,1461.0,3498.0,4131.0
3935,1461.0,3296.0,4131.0
3936,1461.0,3296.0,4131.0
3937,1461.0,3296.0,4131.0
3938,1461.0,3296.0,4131.0
3939,1461.0,3296.0,4131.0
3940,1461.0,3296.0,4131.0
3941,1461.0,3296.0,4131.0
3942,1461.0,3296.0,4131.0
3943,1461.0,3296.0,4131.0
3944,1461.0,3296.0,4131.0
3945,1461.0,3296.0,4131.0
3946,1461.0,3296.0,4131.0
3947,1461.0,3296.0,4131.0
3948,1461.0,3296.0,4131.0
3949,1461.0,323296.0,4131.0
3950,1461.0,3296.0,4131.0
3951,1461.0,3296.0,4131.0
3952,1461.0,3296.0,4131.0
3953,1461.0,3296.0,4131.0
3954,1461.0,3296.0,4131.0
3955,1461.0,3296.0,4131.0
3956,991.0,3296.0,5299.0
3957,991.0,3296.0,5299.0
3958,991.0,3296.0,5299.0
3959,991.0,3296.0,5299.0
3960,991.0,3296.0,5299.0
3961,991.0,3296.0,5299.0
3962,991.0,3296.0,5299.0
3963,991.0,3296.0,5299.0
3964,991.0,3296.0,5299.0
3965,991.0,3296.0,5299.0
3966,991.0,4708.0,5299.0
3967,991.0,4708.0,5299.0
3968,991.0,4708.0,5299.0
3969,991.0,4708.0,5299.0
3970,991.0,4708.0,5299.0
3971,991.0,4708.0,5299.0
3972,991.0,4708.0,5299.0
3973,991.0,4708.0,5299.0
3974,991.0,4708.0,5299.0
3975,991.0,4708.0,5299.0
3976,1141.0,4708.0,5299.0
3977,1141.0,4708.0,5299.0
3978,141.0,4708.0,5299.0
3979,11141.0,4708.0,5299.0
3980,1141.0,4708.0,5299.0
3981,1141.0,4708.0,5299.0
3982,1141.0,4708.0,5299.0
3983,1141.0,4708.0,5299.0
3984,1420.0,4708.0,5299.0
3985,1420.0,4708.0,5299.0
3986,1420.0,4708.0,5299.0
3987,1420.0,4708.0,5299.0
3988,1420.0,4708.0,5299.0
3989,1420.0,4708.0,5299.0
3990,1420.0,4708.0,5299.0
3991,1420.0,4708.0,5299.0
3992,900.0,4708.0,5299.0
3993,900.0,4708.0,5299.0
3994,921.0,4708.0,5299.0
3995,921.0,4708.0,5299.0
3996,921.0,4708.0,5299.0
3997,970.0,4708.0,5299.0
3998,970.0,4708.0,5299.0
3999,970.0,4708.0,5299.0
4000,707.0,4708.0,5299.0
4001,707.0,4708.0,5299.0
4002,734.0,4708.0,5299.0
4003,734.0,4708.0,5299.0
4004,734.0,4708.0,5299.0
4005,734.0,4708.0,5299.0
4006,734.0,4708.0,5299.0
4007,734.0,4708.0,5299.0
4008,734.0,4708.0,5299.0
4009,734.0,4708.0,5299.0
4010,734.0,4708.0,5299.0
4011,734.0,4708.0,5299.0
4012,734.0,2927.0,5299.0
4013,734.0,2927.0,5299.0
4014,734.0,3399.0,5299.0
4015,734.0,2088.0,5299.0
4016,1214.0,3211.0,5299.0
4017,1214.0,3673.0,5299.0
4018,1214.0,3673.0,5299.0
4019,1214.0,3673.0,5299.0
4020,2512.0,3673.0,5299.0
4021,2512.0,3673.0,5299.0
4022,2512.0,3673.0,5299.0
4023,2512.0,3673.0,5299.0
4024,2512.0,3673.0,5299.0
4025,184841.0,3673.0,5299.0
4026,1841.0,3673.0,5299.0
4027,1841.0,3673.0,5299.0
4028,1841.0,3673.0,5299.0
4029,1841.0,3673.0,5299.0
4030,1841.0,3673.0,5299.0
4031,1841.0,3673.0,5299.0
4032,1841.0,3673.0,5299.0
4033,1841.0,3673.0,5299.0
4034,1841.0,3673.0,5299.0
4035,1841.0,3673.0,5299.0
4036,1841.0,3673.0,5299.0
4037,1841.0,3673.0,5299.0
4038,1841.0,3673.0,5299.0
4039,1841.0,3673.0,5299.0
4100,1943.0,1943.0,1588.0
4101,844.0,1588.0,3852.0
4102,900.0,1588.0,3852.0
4103,900.0,1588.0,3852.0
4104,900.0,1588.0,3852.0
4105,900.0,1588.0,3852.0
4106,900.0,1588.0,3852.0
4107,1093.0,1588.0,3852.0
4108,1093.0,1588.0,3852.0
4109,726726.0,1588.0,3852.0
4110,726.0,1588.0,3852.0
4111,726.0,1588.0,3852.0
4112,744.0,1588.0,3852.0
4113,744.0,1588.0,3852.0
4114,744.0,1588.0,3852.0
4115,744.0,1588.0,3852.0
4116,744.0,1588.0,3852.0
4117,791.0,1588.0,3852.0
4118,791.0,1588.0,3852.0
4119,791.0,1588.0,3852.0
4120,791.0,1388.0,3852.0
4121,948.0,1388.0,3852.0
4122,948.0,1388.0,3852.0
4123,948.0,1388.0,3852.0
4124,948.0,1388.0,3852.0
4125,948.0,1388.0,3852.0
4126,948.0,1388.0,3852.0
4127,948.0,1388.0,3852.0
4128,948.0,1388.0,3852.0
4129,948.0,1388.0,3852.0
4130,948.0,1388.0,3852.0
4131,948.0,1388.0,3852.0
4132,18.0,1388.0,3852.0
4133,1088.0,1388.0,3852.0
4134,1088.0,1388.0,3852.0
4135,1088.0,1388.0,3852.0
4136,1139.0,1388.0,3852.0
4137,1139.0,1388.0,3852.0
4138,1139.0,1388.0,3852.0
4139,1139.0,1008.0,3852.0
4140,1139.0,1008.0,3852.0
4141,1139.0,1008.0,3852.0
4142,1139.0,1008.0,3852.0
4143,1139.0,1008.0,3852.0
4144,590.0,1008.0,3852.0
4145,590.0,1008.0,3852.0
4146,590.0,1008.0,3852.0
4147,590.0,1008.0,3852.0
4148,590.0,1008.0,3852.0
4149,590.0,1008.0,3852.0
4150,590.0,1008.0,3852.0
4151,590.0,1008.0,3852.0
4152,590.0,1008.0,3852.0
4153,590.0,1008.0,3852.0
4154,590.0,1008.0,3852.0
4155,590.0,1008.0,3852.0
4156,590.0,1008.0,3852.0
4157,1471.0,1008.0,3852.0
4158,1471.0,1008.0,3852.0
4159,1471.0,1008.0,3852.0
4160,1214.0,1008.0,3852.0
4161,1214.0,1008.0,3852.0
4162,1214.0,1008.0,3852.0
4163,1214.0,1008.0,3852.0
4164,1214.0,1008.0,3852.0
4165,897.0,1008.0,3852.0
4166,897.0,1008.0,3852.0
4167,897.0,1008.0,3852.0
4168,897.0,1008.0,3852.0
4169,897.0,1008.0,3852.0
4170,897.0,1008.0,3852.0
4171,897.0,1008.0,3852.0
4172,817.0,1008.0,3852.0
4173,817.0,1008.0,3852.0
4174,817.0,1008.0,3852.0
4175,817.0,1008.0,3852.0
4176,817.0,1008.0,3852.0
4177,817.0,1008.0,3852.0
4178,769.0,1008.0,3852.0
4179,1067.0,1008.0,3852.0
4180,1695.0,1008.0,3852.0
4181,424.0,1008.0,3852.0
4182,424.0,1008.0,3852.0
4183,424.0,1008.0,3852.0
4184,424.0,1008.0,3852.0
4185,1156.0,1008.0,3852.0
4186,1156.0,1008.0,3852.0
4187,1156.0,1008.0,3852.0
4188,1156.0,1008.0,3852.0
4189,1498.0,1008.0,3852.0
4190,1498.0,1008.0,3852.0
4191,1131.0,1008.0,3852.0
4192,1131.0,1008.0,3852.0
4193,1131.0,1008.0,3852.0
4194,1131.0,1008.0,3852.0
4195,1131.0,1008.0,3852.0
4196,1131.0,1008.0,3852.0
4197,1131.0,1008.0,3852.0
4198,1131.0,1008.0,3852.0
4248,323.0,23150.0,2315.0
4249,454.0,454.0,1783.0
4250,525.0,25.0,3052.0
4251,525.0,441525.0,4415.0
4252,1104.0,311104.0,3113.0
4256,615.0,32015.0,3204.0
4257,881.0,32041.0,3204.0
4258,778.0,4078.0,4017.0
4262,484.0,3987484.0,3987.0
4263,1415.0,23801415.0,2380.0
4340,1647.0,3679.0,3059.0
4341,1647.0,2021.0,3059.0
4342,1647.0,2021.0,3059.0
4343,1647.0,2488.0,3059.0
4344,1647.0,2488.0,3059.0
4345,1647.0,2488.0,3059.0
4346,1647.0,2488.0,3059.0
4347,1647.0,2488.0,3059.0
4348,1647.0,2488.0,3059.0
4349,1647.0,5181.0,3059.0
4350,1647.0,5181.0,3059.0
4351,1647.0,5181.0,3059.0
4352,1647.0,5181.0,3059.0
4353,1647.0,6336.0,3059.0
4354,1647.0,6336.0,3059.0
4355,889.0,6336.0,3059.0
4356,889.0,3951.0,3059.0
4357,889.0,3951.0,3059.0
4358,1403.0,3965.0,3059.0
4359,844.0,3965.0,3059.0
4360,844.0,1970.0,3059.0
4361,844.0,1970.0,3059.0
4362,844.0,1970.0,3059.0
4363,844.0,1970.0,3059.0
4364,844.0,1970.0,3059.0
4365,844.0,1970.0,3059.0
4366,844.0,1970.0,3059.0
4367,844.0,1970.0,3059.0
4368,844.0,1970.0,3059.0
4369,844.0,1970.0,3059.0
4370,844.0,1970.0,3059.0
4371,844.0,1970.0,3059.0
4372,844.0,1970.0,3059.0
4373,844.0,1970.0,3059.0
4374,844.0,1970.0,4318.0
4375,844.0,1970.0,4318.0
4376,1532.0,1970.0,4318.0
4377,1532.0,1970.0,4318.0
4378,1532.0,2461.0,4318.0
4379,1532.0,2461.0,4318.0
4380,1532.0,2461.0,4318.0
4381,1532.0,2461.0,4318.0
4382,1532.0,2461.0,4318.0
4383,1532.0,2461.0,4318.0
4384,1532.0,2461.0,4318.0
4385,1532.0,2461.0,4318.0
4386,1532.0,2461.0,4318.0
4387,1532.0,2461.0,4318.0
4388,1532.0,2461.0,4318.0
4389,1532.0,2461.0,4318.0
4390,1532.0,2461.0,4318.0
4391,1532.0,2461.0,4318.0
4392,1532.0,2461.0,4318.0
4393,1532.0,2461.0,4318.0
4394,1368.0,2461.0,4318.0
4395,1368.0,2461.0,4318.0
4396,1368.0,2461.0,4318.0
4397,1368.0,2461.0,4318.0
4398,1368.0,2461.0,4318.0
4399,1682.0,2461.0,4318.0
4400,1682.0,2461.0,4318.0
4401,1682.0,2461.0,4318.0
4402,1682.0,2461.0,4318.0
4403,1682.0,2461.0,4318.0
4404,1682.0,2461.0,4318.0
4405,1682.0,2461.0,4318.0
4406,1682.0,2461.0,4318.0
4407,1682.0,2461.0,4318.0
4408,1682.0,2461.0,4318.0
4409,1682.0,2461.0,4318.0
4410,84682.0,2461.0,4318.0
4411,11682.0,2461.0,4318.0
4412,1682.0,2461.0,4318.0
4413,1682.0,2461.0,4318.0
4414,1682.0,2461.0,4318.0
4415,640.0,1635.0,4318.0
4416,640.0,1635.0,4318.0
4417,640.0,1635.0,4318.0
4418,640.0,1635.0,4318.0
4419,640.0,1495.0,4318.0
4420,640.0,1495.0,4318.0
4421,640.0,1495.0,4318.0
4422,640.0,1495.0,4318.0
4423,640.0,1495.0,4318.0
4424,640.0,1495.0,4318.0
4425,672.0,2543.0,4318.0
4426,672.0,2543.0,4318.0
4427,672.0,2543.0,4318.0
4428,672.0,2543.0,4318.0
4429,672.0,2543.0,4318.0
4430,672.0,2543.0,4318.0
4431,672.0,2543.0,4318.0
4432,975.0,2543.0,4318.0
4433,975.0,2543.0,4318.0
4434,975.0,2543.0,4318.0
4435,975.0,2543.0,4318.0
4436,975.0,2543.0,4318.0
4437,975.0,2543.0,4318.0
4438,975.0,2543.0,4318.0
4439,975.0,2543.0,4318.0
4440,975.0,2543.0,4318.0
4441,975.0,2543.0,4318.0
4442,975.0,2543.0,4318.0
4443,975.0,2543.0,4318.0
4444,975.0,2543.0,4318.0
4445,900.0,2543.0,4318.0
4446,1332.0,2543.0,4318.0
4447,1332.0,2543.0,4318.0
4448,1332.0,2543.0,4318.0
4449,1332.0,2543.0,4318.0
4450,1215.0,2543.0,4318.0
4451,1215.0,2543.0,4318.0
4452,1215.0,2543.0,4318.0
4453,1215.0,2543.0,4318.0
4454,3006.0,2543.0,4318.0
4455,3006.0,2543.0,4318.0
4456,3006.0,2543.0,4318.0
4457,3006.0,2543.0,4318.0
4458,3006.0,2543.0,4318.0
4459,3006.0,2543.0,4318.0
4460,3006.0,2543.0,4318.0
4461,3006.0,3858.0,4318.0
4462,3006.0,3858.0,4318.0
4463,3006.0,3858.0,4318.0
4464,3006.0,3858.0,4318.0
4465,3006.0,3858.0,4318.0
4466,3006.0,3858.0,4318.0
4467,3006.0,3858.0,4318.0
4468,3006.0,3858.0,4318.0
4469,1392.0,3858.0,4318.0
4470,1392.0,3858.0,4318.0
4471,1392.0,3858.0,4318.0
4472,1392.0,3858.0,4318.0
4605,2363.0,4409.0,5279.0
4606,2363.0,2732.0,5279.0
4607,2363.0,2732.0,5279.0
4608,2363.0,5394.0,5279.0
4609,2363.0,5394.0,4991.0
4610,2363.0,5394.0,4991.0
4611,2363.0,5394.0,4991.0
4612,2363.0,5394.0,4991.0
4613,2363.0,5394.0,4991.0
4614,2363.0,5394.0,4991.0
4615,800.0,5394.0,4991.0
4616,800.0,5394.0,4991.0
4617,800.0,5394.0,4991.0
4618,800.0,5394.0,4991.0
4619,800.0,5394.0,4991.0
4620,800.0,2280.0,4991.0
4621,800.0,2433.0,4991.0
4622,800.0,2433.0,4991.0
4623,800.0,2433.0,4991.0
4624,800.0,2433.0,4991.0
4625,800.0,2433.0,4991.0
4626,1489.0,2584.0,4991.0
4627,1489.0,2584.0,4991.0
4628,1489.0,2040.0,4991.0
4629,1489.0,2040.0,4991.0
4630,1489.0,2040.0,4991.0
4631,1489.0,2722.0,4991.0
4632,1488.0,2722.0,4991.0
4633,1488.0,2722.0,4991.0
4634,1488.0,2722.0,4991.0
4635,1488.0,2722.0,4991.0
4636,1488.0,2722.0,4991.0
4637,1488.0,1636.0,4991.0
4638,1488.0,1636.0,4991.0
4639,1488.0,1636.0,4991.0
4640,1488.0,1636.0,4991.0
4641,1488.0,1636.0,4991.0
4642,1488.0,1636.0,4991.0
4643,1488.0,1636.0,5785.0
4644,1488.0,1636.0,5785.0
4645,1488.0,2499.0,5785.0
4646,1488.0,2499.0,5785.0
4647,1488.0,2499.0,5785.0
4648,1488.0,2499.0,5785.0
4649,1620.0,727.0,5785.0
4650,1620.0,727.0,5785.0
4651,1620.0,727.0,5785.0
4652,1620.0,3607.0,5785.0
4653,1620.0,3607.0,5785.0
4654,1620.0,3607.0,5785.0
4655,1620.0,3607.0,5785.0
4656,1620.0,3607.0,5785.0
4657,1620.0,3607.0,5785.0
4658,1620.0,3607.0,4412.0
4659,1620.0,3607.0,4412.0
4660,1620.0,1520.0,4412.0
4661,1620.0,1520.0,4412.0
4662,1620.0,1520.0,4412.0
4663,1620.0,1520.0,4412.0
4664,1620.0,2506.0,4412.0
4665,1620.0,2506.0,4412.0
4666,1620.0,2506.0,4412.0
4667,1620.0,2506.0,4412.0
4668,1620.0,2506.0,4412.0
4669,1620.0,2130.0,4412.0
4670,1620.0,3475.0,4412.0
4671,1620.0,3816.0,4412.0
4672,16200.0,3816.0,4412.0
4673,1620.0,3816.0,4328.0
4674,1620.0,3816.0,4328.0
4675,1620.0,3816.0,4328.0
4676,1620.0,3816.0,4328.0
4677,1620.0,3816.0,4328.0
4678,1620.0,3816.0,4328.0
4679,1620.0,3816.0,4328.0
4680,1620.0,3816.0,4328.0
4681,1620.0,3816.0,4328.0
4682,1620.0,3816.0,4328.0
4683,1620.0,3816.0,4328.0
4684,1620.0,3816.0,4328.0
4685,1951.0,3816.0,4328.0
4686,1951.0,3816.0,4328.0
4687,1951.0,3816.0,4328.0
4688,51.0,3692.0,4328.0
4689,1951.0,3692.0,4328.0
4690,1951.0,3692.0,4328.0
4691,1951.0,3692.0,4328.0
4692,1951.0,3692.0,4328.0
4693,1951.0,3692.0,4328.0
4694,1951.0,3692.0,4328.0
4695,1951.0,3692.0,4328.0
4696,1951.0,3692.0,4328.0
4697,1951.0,3692.0,4328.0
4698,1951.0,3692.0,4328.0
4699,1951.0,3692.0,4328.0
4700,1951.0,3692.0,4328.0
4701,1951.0,3692.0,4328.0
4702,1951.0,3692.0,4328.0
4703,1951.0,3692.0,4328.0
4704,1951.0,3692.0,4328.0
4705,1951.0,3692.0,4328.0
4706,1951.0,3692.0,4328.0
4707,1951.0,3692.0,4328.0
4708,1951.0,3692.0,4328.0
4709,1951.0,3692.0,4328.0
4710,1951.0,3692.0,4328.0
4711,1951.0,3692.0,4328.0
4712,1951.0,3692.0,4328.0
4713,1951.0,4352.0,4328.0
4714,1951.0,4352.0,4328.0
4715,1951.0,4352.0,4328.0
4716,1951.0,5329.0,4328.0
4717,1951.0,5329.0,4328.0
4718,1951.0,2358.0,4328.0
4719,724.0,3292.0,4328.0
4720,724.0,3292.0,4328.0
4721,724.0,3292.0,4328.0
4722,724.0,3292.0,4328.0
4723,724.0,3292.0,4328.0
4724,724.0,3292.0,4328.0
4725,796.0,3742.0,4328.0
4726,796.0,3742.0,4328.0
4727,709.0,3742.0,4328.0
4728,1449.0,3742.0,4328.0
4729,1449.0,372.0,4328.0
4730,676.0,372.0,4328.0
4731,676.0,372.0,4328.0
4732,676.0,372.0,4328.0
4733,676.0,372.0,4328.0
4734,676.0,372.0,4328.0
4735,676.0,372.0,4328.0
4736,676.0,2399.0,4328.0
4737,676.0,2399.0,4328.0
4738,676.0,2732.0,4328.0
4739,676.0,2732.0,4328.0
4740,676.0,1254.0,4328.0
4741,676.0,1254.0,4328.0
5011,580.0,288.0,2763.0
5012,580.0,288.0,2763.0
5013,758.0,288.0,2763.0
5014,758.0,288.0,2763.0
5015,758.0,288.0,2763.0
5016,758.0,763.0,2763.0
5017,758.0,763.0,2763.0
5018,758.0,586.0,2763.0
5019,758.0,331.0,2763.0
5020,758.0,331.0,2763.0
5021,758.0,331.0,2763.0
5022,758.0,331.0,2763.0
5023,758.0,331.0,2763.0
5024,758.0,331.0,2763.0
5025,1196.0,331.0,2763.0
5026,1196.0,331.0,2763.0
5027,1196.0,331.0,2763.0
5028,1196.0,331.0,2763.0
5029,1196.0,331.0,2763.0
5030,809.0,331.0,2763.0
5031,809.0,331.0,2763.0
5032,1459.0,237.0,2763.0
5033,2100.0,237.0,2763.0
5034,2100.0,237.0,2763.0
5035,2100.0,237.0,2763.0
5036,2100.0,806.0,2763.0
5037,2100.0,806.0,2763.0
5038,2100.0,806.0,2763.0
5039,2100.0,684.0,2763.0
5040,2100.0,701.0,2763.0
5041,2100.0,709.0,2763.0
5042,2100.0,709.0,2456.0
5043,2100.0,709.0,2456.0
5044,2100.0,709.0,2456.0
5045,2100.0,709.0,2456.0
5046,2100.0,709.0,2456.0
5047,2100.0,433.0,2456.0
5048,2100.0,653.0,2456.0
5049,2100.0,653.0,2456.0
5050,2100.0,653.0,2456.0
5051,2100.0,653.0,2456.0
5052,2100.0,653.0,2456.0
5053,2100.0,514.0,2456.0
5054,2100.0,514.0,2456.0
5055,2100.0,862.0,2456.0
5056,2100.0,802.0,2456.0
5057,2100.0,802.0,2456.0
5058,2100.0,802.0,2456.0
5059,2100.0,802.0,2456.0
5060,853.0,802.0,2456.0
5061,853.0,802.0,2456.0
5062,853.0,802.0,2456.0
5063,853.0,802.0,2456.0
5064,1300.0,802.0,2456.0
5065,1300.0,802.0,2456.0
5066,1145.0,802.0,2456.0
5067,1145.0,802.0,2456.0
5068,1587.0,802.0,2456.0
5069,1587.0,877.0,2456.0
5070,1587.0,877.0,2456.0
5071,1587.0,877.0,2456.0
5072,1371.0,877.0,2456.0
5073,1371.0,877.0,2456.0
5074,1371.0,969.0,2456.0
5075,1371.0,969.0,2456.0
5076,1371.0,969.0,2456.0
5077,1666.0,831.0,2456.0
5078,1666.0,831.0,2456.0
5079,1666.0,831.0,4826.0
5080,1666.0,831.0,4826.0
5081,1666.0,831.0,4826.0
5082,1666.0,831.0,4826.0
5083,1666.0,1026.0,4826.0
5084,1666.0,255.0,4826.0
5085,1666.0,255.0,4826.0
5086,1666.0,317.0,4826.0
5087,1666.0,317.0,4826.0
5088,1666.0,299.0,4826.0
5089,1666.0,299.0,4826.0
5090,1666.0,596.0,4826.0
5091,1666.0,596.0,4826.0
5092,1666.0,596.0,4826.0
5093,1666.0,369.0,4826.0
5094,1536.0,369.0,4826.0
5095,1536.0,369.0,4826.0
5096,1536.0,369.0,4826.0
5097,1536.0,1127.0,4826.0
5098,1536.0,544.0,4826.0
5099,1536.0,544.0,4826.0
5100,1536.0,544.0,4826.0
5101,536.0,544.0,4250.0
5102,1536.0,544.0,4250.0
5103,1536.0,544.0,4250.0
5104,1536.0,544.0,4250.0
5105,1536.0,544.0,4250.0
5106,1536.0,544.0,4250.0
5107,1536.0,1126.0,4250.0
5108,1536.0,1126.0,4250.0
5109,1536.0,1126.0,4250.0
5110,1536.0,1126.0,4250.0
5111,1536.0,441.0,4250.0
5112,1536.0,800.0,4250.0
5113,1536.0,800.0,4250.0
5114,1536.0,800.0,4250.0
5115,1756.0,800.0,4250.0
5116,1756.0,800.0,4250.0
5117,1756.0,800.0,4250.0
5118,863.0,800.0,4250.0
5119,863.0,800.0,4250.0
5120,863.0,831.0,4250.0
5121,863.0,831.0,4250.0
5122,1425.0,831.0,4250.0
5123,1425.0,831.0,4250.0
5124,2496.0,831.0,4250.0
5125,2496.0,831.0,4250.0
5126,1725.0,831.0,4250.0
5127,1725.0,831.0,4250.0
5128,1725.0,831.0,4250.0
5129,1725.0,831.0,4250.0
5130,1725.0,831.0,4250.0
5131,1725.0,518.0,4250.0
5132,725.0,518.0,4250.0
5133,1725.0,518.0,4250.0
5134,1441.0,518.0,4250.0
5135,914.0,518.0,4250.0
5136,914.0,227.0,4250.0
5137,1237.0,227.0,4250.0
5138,1237.0,227.0,4250.0
5139,1237.0,227.0,2825.0
5140,1237.0,658.0,2825.0
5141,1237.0,658.0,2825.0
5142,1237.0,658.0,2825.0
5143,1237.0,658.0,2825.0
5144,1237.0,658.0,2825.0
5145,1155.0,658.0,2825.0
5286,1025.0,652.0,5753.0
5287,1025.0,394.0,5753.0
5288,1025.0,394.0,5753.0
5289,1025.0,394.0,5753.0
5290,1025.0,394.0,5753.0
5291,1025.0,394.0,5753.0
5292,1025.0,394.0,5753.0
5293,1025.0,394.0,5753.0
5294,1025.0,394.0,4365.0
5295,1025.0,394.0,4365.0
5296,2048.0,394.0,4365.0
5297,2048.0,394.0,4365.0
5298,2048.0,394.0,4365.0
5299,2048.0,394.0,4365.0
5300,1102048.0,394.0,4365.0
5301,2048.0,394.0,4365.0
5302,2048.0,394.0,4365.0
5303,2048.0,394.0,3991.0
5304,2048.0,1009.0,3991.0
5305,2048.0,1009.0,3991.0
5306,2048.0,1020.0,3991.0
5307,2048.0,1020.0,3991.0
5308,2048.0,1020.0,3991.0
5309,8.0,1079.0,3991.0
5310,20448.0,2408.0,3991.0
5311,2048.0,557.0,3991.0
5312,2048.0,557.0,3991.0
5313,2048.0,557.0,3991.0
5314,2048.0,557.0,3991.0
5315,2048.0,612.0,3991.0
5316,2048.0,612.0,3991.0
5317,1534.0,612.0,3991.0
5318,1534.0,612.0,3991.0
5319,1534.0,612.0,3991.0
5320,1534.0,612.0,3991.0
5321,1534.0,612.0,3991.0
5322,1534.0,612.0,3991.0
5323,1534.0,612.0,1822.0
5324,1534.0,612.0,1822.0
5325,1534.0,612.0,1822.0
5326,1534.0,650.0,1822.0
5327,1534.0,650.0,1822.0
5328,1534.0,650.0,1822.0
5329,1534.0,650.0,2777.0
5330,1534.0,1278.0,2777.0
5331,1534.0,1278.0,2777.0
5332,1534.0,1278.0,2777.0
5333,1534.0,1278.0,2777.0
5334,1534.0,1278.0,2777.0
5335,754.0,374.0,2777.0
5336,1754.0,374.0,2777.0
5337,1754.0,374.0,2777.0
5338,1754.0,374.0,2777.0
5339,1754.0,374.0,3511.0
5340,201.0,374.0,3511.0
5341,175454.0,374.0,2132.0
5342,1754.0,374.0,2132.0
5343,1754.0,374.0,2604.0
5344,2029.0,374.0,2604.0
5345,2029.0,374.0,2604.0
5346,1231.0,374.0,2604.0
5347,1231.0,374.0,2604.0
5348,1786.0,374.0,2604.0
5349,1786.0,374.0,2604.0
5350,1093.0,374.0,2604.0
5351,1093.0,374.0,2604.0
5352,1093.0,374.0,2604.0
5353,1093.0,374.0,2604.0
5354,1093.0,374.0,2604.0
5355,1093.0,374.0,2604.0
5356,1247.0,374.0,2604.0
5357,1247.0,374.0,2604.0
5358,1247.0,374.0,2604.0
5359,1247.0,374.0,2604.0
5360,1247.0,374.0,2604.0
5361,1247.0,374.0,2604.0
5362,1247.0,374.0,2604.0
5363,1247.0,374.0,2824.0
5364,1247.0,374.0,2824.0
5365,1247.0,374.0,2824.0
5366,1247.0,374.0,2824.0
5367,1247.0,374.0,2824.0
5368,1247.0,374.0,2824.0
5369,1247.0,374.0,1870.0
5370,1247.0,374.0,1870.0
5371,1707.0,374.0,1870.0
5372,1707.0,374.0,1870.0
5373,1707.0,374.0,1870.0
5374,1707.0,374.0,4375.0
5375,1707.0,374.0,4375.0
5376,1707.0,374.0,4375.0
5377,1707.0,374.0,4375.0
5378,1707.0,374.0,4375.0
5379,1707.0,374.0,4375.0
5380,1707.0,374.0,4375.0
5381,1707.0,374.0,4375.0
5382,1707.0,374.0,4375.0
5383,1707.0,374.0,4375.0
5384,1707.0,374.0,4375.0
5385,1707.0,374.0,4375.0
5386,1707.0,374.0,4375.0
5387,1707.0,374.0,4375.0
5388,1707.0,374.0,4375.0
5389,1707.0,374.0,4375.0
5390,1707.0,448.0,4375.0
5391,1707.0,448.0,4375.0
5392,1707.0,448.0,4375.0
5393,1707.0,448.0,4375.0
5394,1707.0,448.0,4375.0
5395,1707.0,448.0,4375.0
5396,1707.0,448.0,4375.0
5397,1707.0,448.0,4375.0
5398,1707.0,448.0,4375.0
5399,1707.0,448.0,2333.0
5400,1707.0,448.0,2333.0
5401,1707.0,448.0,2333.0
5402,1707.0,448.0,2333.0
5403,1707.0,448.0,2333.0
5404,1707.0,448.0,2333.0
5405,1546.0,448.0,2333.0
5406,1546.0,448.0,2333.0
5407,1546.0,448.0,2333.0
5408,1546.0,448.0,3537.0
5409,1546.0,448.0,3537.0
5410,1546.0,448.0,3537.0
5411,1546.0,681.0,3537.0
5412,1546.0,681.0,3537.0
5413,1546.0,771.0,3537.0
5414,1546.0,771.0,3537.0
5415,1546.0,771.0,3537.0
5416,1546.0,771.0,3537.0
5417,1546.0,771.0,3537.0
5418,1546.0,564.0,3537.0
5419,1546.0,564.0,3537.0
5420,1546.0,564.0,3537.0
5421,1546.0,564.0,3537.0
5422,1546.0,564.0,3537.0
5423,1546.0,564.0,3537.0
5424,652.0,564.0,3537.0
5425,652.0,564.0,3537.0
5426,652.0,564.0,3537.0
5427,652.0,564.0,3537.0
5428,652.0,564.0,3537.0
5429,652.0,564.0,3537.0
5430,1149.0,564.0,3537.0
5576,2768.0,452.0,3978.0
5577,2768.0,452.0,3978.0
5578,2768.0,452.0,3978.0
5579,2768.0,452.0,3978.0
5580,2768.0,452.0,3978.0
5581,2768.0,452.0,4073.0
5582,2768.0,452.0,4073.0
5583,2768.0,452.0,4073.0
5584,2768.0,452.0,4073.0
5585,2768.0,452.0,4073.0
5586,2768.0,452.0,4073.0
5587,1981.0,452.0,4073.0
5588,1981.0,452.0,4073.0
5589,3005.0,452.0,4073.0
5590,3005.0,452.0,4073.0
5591,1883.0,452.0,4073.0
5592,1883.0,452.0,4073.0
5593,1883.0,452.0,4073.0
5594,1883.0,452.0,4073.0
5595,1883.0,452.0,4073.0
5596,1883.0,452.0,4073.0
5597,1883.0,452.0,4073.0
5598,1883.0,452.0,4073.0
5599,1883.0,452.0,4073.0
5600,1883.0,452.0,4073.0
5601,1883.0,452.0,4073.0
5602,1883.0,452.0,4073.0
5603,1883.0,452.0,4073.0
5604,1883.0,452.0,4073.0
5605,1883.0,452.0,4073.0
5606,1883.0,452.0,4073.0
5607,1883.0,452.0,4073.0
5608,1883.0,452.0,4073.0
5609,1883.0,452.0,4073.0
5610,613.0,452.0,4073.0
5611,1413.0,452.0,4073.0
5612,1413.0,452.0,4073.0
5613,1413.0,452.0,4073.0
5614,1413.0,452.0,4073.0
5615,1413.0,452.0,4073.0
5616,1413.0,452.0,4073.0
5617,1560.0,452.0,4073.0
5618,1292.0,452.0,4073.0
5619,1292.0,452.0,4073.0
5620,1292.0,452.0,4073.0
5621,925.0,452.0,4073.0
5622,925.0,452.0,4073.0
5623,925.0,452.0,4073.0
5624,925.0,452.0,4073.0
5625,925.0,452.0,4073.0
5626,869.0,452.0,4073.0
5627,869.0,452.0,4073.0
5628,869.0,452.0,4073.0
5629,869.0,452.0,4073.0
5630,1844.0,452.0,5249.0
5631,1844.0,452.0,5249.0
5632,1844.0,452.0,5249.0
5633,1844.0,452.0,5249.0
5634,1844.0,452.0,5249.0
5635,1844.0,452.0,5249.0
5636,1844.0,452.0,5249.0
5637,1844.0,452.0,5249.0
5638,1844.0,452.0,5249.0
5639,1844.0,452.0,5123.0
5640,1844.0,452.0,5123.0
5641,1844.0,452.0,4380.0
5642,1844.0,452.0,4380.0
5643,1844.0,452.0,4380.0
5644,1844.0,452.0,4380.0
5645,1844.0,452.0,4380.0
5646,1844.0,620.0,4380.0
5647,1764.0,620.0,4380.0
5648,1764.0,620.0,4380.0
5649,2394.0,620.0,4380.0
5650,2394.0,620.0,4380.0
5651,2394.0,620.0,4380.0
5652,2394.0,620.0,4380.0
5653,2394.0,620.0,4380.0
5654,2394.0,620.0,4380.0
5655,2394.0,620.0,4380.0
5656,1874.0,620.0,4380.0
5657,1874.0,758.0,4380.0
5658,875.0,758.0,4380.0
5659,875.0,758.0,4380.0
5660,1702.0,758.0,4380.0
5661,1702.0,758.0,4380.0
5662,1702.0,758.0,4380.0
5663,1890.0,758.0,4380.0
5664,1890.0,758.0,4380.0
5665,1624.0,758.0,4380.0
5666,1624.0,758.0,4380.0
5667,2283.0,758.0,4380.0
5668,2188.0,758.0,4380.0
5669,2188.0,758.0,4380.0
5670,2188.0,758.0,4380.0
5671,2188.0,758.0,4380.0
5672,2188.0,758.0,3850.0
5673,2188.0,758.0,3850.0
5674,2188.0,758.0,3850.0
5675,2188.0,758.0,3850.0
5676,2188.0,758.0,3850.0
5677,2188.0,758.0,3850.0
5678,2188.0,758.0,3850.0
5679,2188.0,758.0,3850.0
5680,2188.0,758.0,3675.0
5681,2188.0,758.0,2869.0
5682,2188.0,758.0,2869.0
5683,2188.0,758.0,2869.0
5684,2188.0,758.0,2869.0
5685,2.0,758.0,4593.0
5686,2188188.0,758.0,4593.0
5687,2188.0,758.0,4593.0
5688,2188.0,758.0,4593.0
5689,2188.0,758.0,4593.0
5690,2188.0,758.0,4593.0
5691,2188.0,758.0,1829.0
5692,2188.0,758.0,1829.0
5693,2188.0,758.0,2229.0
5694,2188.0,758.0,2229.0
5695,2188.0,758.0,2229.0
5696,2188.0,758.0,4099.0
5697,2188.0,758.0,4099.0
5698,2188.0,758.0,4099.0
5699,809.0,758.0,4099.0
5700,809.0,758.0,4099.0
5701,2399.0,758.0,4577.0
5702,2399.0,758.0,4577.0
5703,2399.0,758.0,5741.0
5704,2399.0,758.0,5741.0
5705,289.0,758.0,5741.0
5706,15589.0,938.0,5741.0
5707,1589.0,938.0,5741.0
5708,1589.0,938.0,5741.0
5709,3115.0,938.0,5741.0
5710,3115.0,938.0,5741.0
5711,3115.0,938.0,5741.0
5844,2462463.0,655.0,2773.0
5845,1575.0,655.0,3712.0
5846,980.0,655.0,3712.0
5847,980.0,1093.0,3712.0
5848,980.0,1093.0,3712.0
5849,980.0,1093.0,3712.0
5850,980.0,1093.0,3712.0
5851,980.0,1093.0,3712.0
5852,980.0,1093.0,3712.0
5853,980.0,837.0,3712.0
5854,980.0,837.0,3964.0
5855,980.0,837.0,3964.0
5856,980.0,837.0,3964.0
5857,2309.0,837.0,3964.0
5858,2309.0,837.0,3964.0
5859,2309.0,837.0,3964.0
5860,2309.0,837.0,3964.0
5861,2309.0,837.0,2605.0
5862,2309.0,1812.0,2605.0
5863,2309.0,1812.0,5956.0
5864,2.0,1812.0,5956.0
5865,16361636.0,1812.0,4853.0
5866,1599.0,1812.0,4853.0
5867,99.0,1812.0,4853.0
5868,1599.0,1812.0,4853.0
5869,1599.0,1812.0,4853.0
5870,1556.0,1812.0,4889.0
5871,141456.0,1812.0,4889.0
5872,1456.0,1812.0,4889.0
5873,1456.0,1812.0,4889.0
5874,1456.0,1812.0,4889.0
5875,1456.0,1812.0,4889.0
5876,1456.0,1812.0,4889.0
5877,456.0,1812.0,4889.0
5878,1456.0,1812.0,4889.0
5879,1456.0,1812.0,4889.0
5880,1456.0,1812.0,4740.0
5881,1456.0,1812.0,4740.0
5882,1456.0,1812.0,4740.0
5883,1456.0,1812.0,4740.0
5884,2635.0,1812.0,4740.0
5885,1635.0,1812.0,4740.0
5886,22635.0,1812.0,4740.0
5887,2635.0,1950.0,4740.0
5888,2635.0,1950.0,4740.0
5889,2635.0,1950.0,3962.0
5890,2635.0,1950.0,3962.0
5891,1061.0,1950.0,3962.0
5892,1061.0,1950.0,3962.0
5893,1061.0,1950.0,3962.0
5894,1061.0,1950.0,3962.0
5895,1061.0,1950.0,3962.0
5896,1061.0,1950.0,3962.0
5897,1061.0,1950.0,3962.0
5898,1061.0,1950.0,3962.0
5899,1061.0,1950.0,3962.0
5900,1061.0,1950.0,5613.0
5901,1061.0,1950.0,5613.0
5902,1061.0,1950.0,5613.0
5903,1061.0,1950.0,5613.0
5904,1061.0,1950.0,5613.0
5905,1061.0,1950.0,5613.0
5906,1061.0,1950.0,5613.0
5907,2441.0,1950.0,5613.0
5908,2441.0,1950.0,5613.0
5909,2441.0,1950.0,5613.0
5910,2441.0,1950.0,5613.0
5911,2441.0,1950.0,5613.0
5912,2441.0,1950.0,5613.0
5913,2441.0,1950.0,5613.0
5914,2441.0,1950.0,5613.0
5915,2441.0,1950.0,5613.0
5916,2441.0,497.0,5613.0
5917,2441.0,497.0,5613.0
5918,2441.0,817.0,5613.0
5919,2441.0,817.0,5613.0
5920,200.0,817.0,5613.0
5921,2441.0,817.0,5613.0
5922,2441.0,817.0,5613.0
5923,2441.0,817.0,5613.0
5924,2441.0,817.0,5613.0
5925,2441.0,817.0,5613.0
5926,2441.0,817.0,5613.0
5927,2441.0,817.0,5613.0
5928,2441.0,1039.0,5613.0
5929,2441.0,1039.0,5613.0
5930,2441.0,1039.0,5613.0
5931,2441.0,465.0,5613.0
5932,2441.0,465.0,5613.0
5933,2441.0,465.0,5613.0
5934,2441.0,1520.0,5613.0
5935,22441.0,897.0,5613.0
5936,2441.0,680.0,5613.0
5937,2441.0,680.0,5613.0
5938,2441.0,671.0,5613.0
5939,24.0,1492.0,5613.0
5940,24412441.0,1492.0,5613.0
5941,2441.0,860.0,5613.0
5942,2441.0,546.0,5613.0
5943,2441.0,546.0,5613.0
5944,2441.0,546.0,5613.0
5945,2441.0,967.0,5613.0
5946,2441.0,1027.0,5613.0
5947,2441.0,1027.0,5613.0
5948,2441.0,1027.0,5613.0
5949,2441.0,1027.0,5613.0
5950,2441.0,1027.0,5613.0
5951,1055.0,1027.0,5613.0
5952,1055.0,1027.0,5613.0
5953,1055.0,1027.0,5613.0
5954,1055.0,1027.0,5613.0
5955,1055.0,1027.0,5613.0
5956,1055.0,1027.0,5613.0
5957,1055.0,1027.0,5613.0
5958,1055.0,1376.0,5613.0
5959,1055.0,1035.0,5613.0
5960,1055.0,1122.0,5613.0
5961,1055.0,1122.0,5613.0
5962,1055.0,1122.0,5613.0
5963,696.0,1122.0,5613.0
5964,696.0,1122.0,5613.0
5965,696.0,1122.0,5613.0
5966,1576.0,1122.0,5613.0
5967,1576.0,1122.0,5613.0
5968,3013.0,1122.0,5613.0
5969,3013.0,1122.0,5613.0
5970,3013.0,1122.0,5613.0
5971,3013.0,1122.0,5613.0
5972,3013.0,1122.0,5613.0
5973,3013.0,1122.0,5613.0
5974,3013.0,1122.0,5613.0
5975,1971.0,1122.0,5613.0
5976,1971.0,1122.0,5613.0
5977,1971.0,1122.0,5613.0
6116,876.0,2817.0,3056.0
6117,616.0,2817.0,3056.0
6118,616.0,2817.0,3056.0
6119,616.0,2817.0,3056.0
6120,616.0,2817.0,3056.0
6121,616.0,2817.0,3056.0
6122,616.0,2817.0,3056.0
6123,616.0,2817.0,3056.0
6124,616.0,2817.0,1455.0
6125,616.0,2817.0,1455.0
6126,616.0,2817.0,1455.0
6127,616.0,2817.0,1455.0
6128,616.0,2817.0,1455.0
6129,1118.0,3302.0,1455.0
6130,1118.0,3302.0,1455.0
6131,1118.0,4354.0,1455.0
6132,1118.0,4354.0,1455.0
6133,1118.0,4354.0,1455.0
6134,1118.0,4354.0,1455.0
6135,1118.0,4354.0,1455.0
6136,1118.0,4354.0,1455.0
6137,1118.0,4354.0,1455.0
6138,1118.0,4354.0,1455.0
6139,1118.0,4354.0,1455.0
6140,1118.0,4354.0,1455.0
6141,18.0,4354.0,1455.0
6142,11118.0,4354.0,1455.0
6143,1118.0,4354.0,1455.0
6144,1118.0,4354.0,1455.0
6145,1118.0,4354.0,1455.0
6146,1118.0,4354.0,1066.0
6147,1118.0,2855.0,1066.0
6148,1118.0,2855.0,1066.0
6149,1118.0,2855.0,1066.0
6150,1118.0,2855.0,1066.0
6151,1118.0,2855.0,1066.0
6152,1118.0,2855.0,1066.0
6153,1118.0,2855.0,1066.0
6154,192.0,2855.0,1066.0
6155,192.0,2855.0,1066.0
6156,192.0,2855.0,1066.0
6157,192.0,2855.0,1066.0
6158,1177.0,3728.0,1066.0
6159,1177.0,3728.0,1608.0
6160,1177.0,3728.0,1608.0
6161,1177.0,3728.0,1608.0
6162,1177.0,3728.0,1608.0
6163,1177.0,3728.0,1608.0
6164,1177.0,3728.0,1608.0
6165,1177.0,3728.0,1608.0
6166,1177.0,3728.0,1608.0
6167,1177.0,3728.0,1608.0
6168,544.0,3728.0,1608.0
6169,544.0,3728.0,1608.0
6170,544.0,3728.0,943.0
6171,610.0,3728.0,943.0
6172,1220.0,3728.0,943.0
6173,1220.0,3728.0,943.0
6174,434.0,3728.0,943.0
6175,434.0,3728.0,943.0
6176,1074.0,3728.0,943.0
6177,444.0,3728.0,943.0
6178,653.0,3728.0,943.0
6179,653.0,3728.0,943.0
6180,653.0,3728.0,1500.0
6181,653.0,3728.0,1500.0
6182,653.0,3728.0,1500.0
6183,653.0,3728.0,1500.0
6184,653.0,3728.0,1500.0
6185,653.0,3728.0,1390.0
6186,653.0,3728.0,1390.0
6187,653.0,3728.0,497.0
6188,653.0,3728.0,497.0
6189,653.0,3728.0,1313.0
6190,653.0,3728.0,1313.0
6191,653.0,3728.0,1313.0
6192,653.0,3728.0,1313.0
6193,653.0,3728.0,1313.0
6194,1235.0,3728.0,1313.0
6195,1235.0,3728.0,1601.0
6196,1235.0,3728.0,1601.0
6197,808.0,3728.0,1601.0
6198,808.0,3728.0,1601.0
6199,808.0,3728.0,1601.0
6200,808.0,3728.0,1601.0
6201,808.0,3728.0,1601.0
6202,808.0,3728.0,1601.0
6203,808.0,3728.0,1601.0
6204,808.0,3728.0,1601.0
6205,171.0,3728.0,1601.0
6206,171.0,3728.0,1601.0
6207,171.0,3728.0,1601.0
6208,171.0,3728.0,1601.0
6209,650.0,3728.0,1601.0
6210,171.0,3728.0,1601.0
6211,171.0,3728.0,1601.0
6212,171.0,3728.0,1601.0
6213,604.0,3728.0,1601.0
6214,604.0,3728.0,1601.0
6215,17500.0,3728.0,1601.0
6216,500.0,3728.0,1601.0
6217,500.0,3728.0,1601.0
6218,1106.0,3728.0,1601.0
6219,395.0,3728.0,1601.0
6220,395.0,3728.0,1601.0
6221,395.0,7904.0,1601.0
6222,395.0,7904.0,1601.0
6223,1476.0,7904.0,1601.0
6224,1476.0,7904.0,1601.0
6225,1476.0,7904.0,1601.0
6226,1476.0,7904.0,1601.0
6227,1476.0,7904.0,1601.0
6228,2043.0,7904.0,1601.0
6229,1208.0,7904.0,1601.0
6230,1208.0,7904.0,3627.0
6231,999.0,7904.0,3627.0
6232,1412.0,7904.0,3627.0
6233,1412.0,7904.0,3627.0
6234,1412.0,7904.0,3627.0
6235,1412.0,7904.0,3627.0
6236,1412.0,7904.0,3627.0
6237,1412.0,7904.0,3627.0
6238,1412.0,7904.0,3627.0
6239,1412.0,7904.0,3627.0
6240,1412.0,7904.0,3627.0
6241,474.0,7904.0,3627.0
6242,474.0,5694.0,3627.0
6243,474.0,5694.0,3627.0
6244,474.0,5694.0,2976.0
6245,474.0,5694.0,2976.0
6246,784.0,5694.0,2976.0
6379,2028288.0,3127.0,1771.0
6380,288.0,3127.0,1771.0
6381,288.0,3127.0,1771.0
6382,288.0,3127.0,1771.0
6383,603.0,3127.0,1771.0
6384,603.0,3127.0,1771.0
6385,603.0,3127.0,1771.0
6386,391.0,3127.0,1771.0
6387,391.0,1857.0,1771.0
6388,391.0,1857.0,1771.0
6389,391.0,1857.0,1771.0
6390,391.0,1857.0,1771.0
6391,391.0,2678.0,1771.0
6392,391.0,1453.0,1771.0
6393,391.0,1453.0,1771.0
6394,391.0,3635.0,1771.0
6395,391.0,3635.0,1771.0
6396,391.0,3635.0,1419.0
6397,391.0,3635.0,1419.0
6398,391.0,3635.0,1419.0
6399,391.0,3635.0,1060.0
6400,773.0,3635.0,1060.0
6401,673.0,3635.0,1060.0
6402,673.0,3635.0,1060.0
6403,673673.0,3635.0,1258.0
6404,673.0,3635.0,1258.0
6405,673.0,3635.0,1258.0
6406,1601.0,3635.0,2235.0
6407,1601.0,3635.0,2235.0
6408,1.0,3635.0,2235.0
6409,1601.0,3635.0,2235.0
6410,555.0,3635.0,2235.0
6411,555.0,3635.0,2235.0
6412,555.0,4494.0,2235.0
6413,555.0,1469.0,2235.0
6414,555.0,2483.0,2235.0
6415,555.0,2483.0,2235.0
6416,555.0,2483.0,2235.0
6417,555.0,2483.0,1104.0
6418,555.0,2483.0,1104.0
6419,555.0,2483.0,1104.0
6420,555.0,2483.0,1104.0
6421,555.0,3002.0,1104.0
6422,555.0,3891.0,1104.0
6423,555.0,3891.0,1747.0
6424,555.0,3891.0,2917.0
6425,555.0,3891.0,2917.0
6426,555.0,4887.0,2917.0
6427,555.0,4887.0,2642.0
6428,555.0,3769.0,2642.0
6429,555.0,3769.0,2642.0
6430,1422.0,3769.0,2642.0
6431,1422.0,3769.0,2642.0
6432,1422.0,3769.0,2642.0
6433,533.0,3769.0,795.0
6434,533.0,3769.0,795.0
6435,533.0,5633.0,795.0
6436,533.0,5633.0,795.0
6437,533.0,5633.0,795.0
6438,533.0,5633.0,795.0
6439,533.0,4039.0,795.0
6440,533.0,4039.0,795.0
6441,533.0,5290.0,795.0
6442,533.0,5290.0,795.0
6443,1536.0,5290.0,795.0
6444,10.0,5290.0,795.0
6445,1536.0,5290.0,2465.0
6446,1536.0,5290.0,2465.0
6447,1460.0,5290.0,2465.0
6448,1460.0,5290.0,2465.0
6449,1460.0,1001.0,2465.0
6450,1460.0,1001.0,2465.0
6451,1460.0,4923.0,2465.0
6452,1460.0,4923.0,2465.0
6453,1460.0,4923.0,1860.0
6454,1460.0,4923.0,1860.0
6455,1460.0,2755.0,1860.0
6456,1460.0,2755.0,1860.0
6457,1460.0,2755.0,2041.0
6458,1460.0,2755.0,2041.0
6459,1460.0,2755.0,2041.0
6460,1460.0,2755.0,1798.0
6461,1460.0,2755.0,1798.0
6462,1460.0,2755.0,1798.0
6463,1460.0,2755.0,1257.0
6464,1460.0,2755.0,1257.0
6465,1460.0,2755.0,1257.0
6466,1460.0,2755.0,1257.0
6467,1460.0,2755.0,1507.0
6468,1460.0,2755.0,1507.0
6469,1460.0,2755.0,1507.0
6470,830.0,2755.0,1507.0
6471,830.0,2755.0,1507.0
6472,830.0,2755.0,1507.0
6473,830.0,2755.0,1507.0
6474,830.0,2755.0,1507.0
6475,830.0,2755.0,1507.0
6476,830.0,2755.0,1507.0
6477,830.0,2755.0,1507.0
6478,830.0,2755.0,1507.0
6479,830.0,2755.0,1507.0
6480,830.0,2755.0,1507.0
6481,830.0,3230.0,1507.0
6482,830.0,3230.0,1507.0
6483,830.0,3230.0,1507.0
6484,830.0,3230.0,1507.0
6485,830.0,3230.0,1507.0
6486,830.0,3230.0,1507.0
6487,830.0,3230.0,1507.0
6488,830.0,3230.0,1507.0
6489,830.0,3230.0,1507.0
6490,830.0,3230.0,1507.0
6491,830.0,3230.0,1507.0
6492,830.0,3230.0,1507.0
6493,830.0,2005.0,1507.0
6494,830.0,3480.0,1507.0
6495,830.0,3480.0,1507.0
6496,830.0,3480.0,1507.0
6497,830.0,3437.0,1507.0
6498,830.0,3437.0,1507.0
6499,830.0,3437.0,1507.0
6500,830.0,3437.0,1507.0
6501,830.0,3437.0,1507.0
6502,830.0,4965.0,1507.0
6503,830.0,4965.0,1507.0
6504,830.0,2995.0,1507.0
6505,830.0,2995.0,1507.0
6506,830.0,2995.0,1701.0
6507,830.0,2995.0,1701.0
6643,363.0,2283.0,1466.0
6644,360.0,2283.0,1466.0
6645,363.0,2283.0,1466.0
6646,363363.0,2283.0,1466.0
6647,363.0,2283.0,1466.0
6648,363.0,2283.0,1466.0
6649,363.0,2283.0,1466.0
6650,363.0,2283.0,1466.0
6651,363.0,2283.0,1466.0
6652,363.0,2283.0,1466.0
6653,363.0,2283.0,1466.0
6654,363.0,2283.0,1466.0
6655,426.0,2283.0,1466.0
6656,426.0,2283.0,1466.0
6657,4266.0,2283.0,1240.0
6658,426.0,2283.0,1240.0
6659,426.0,2283.0,1240.0
6660,426.0,2283.0,1240.0
6661,426.0,2261.0,1240.0
6662,426.0,4920.0,1240.0
6663,426.0,4920.0,1240.0
6664,426.0,4920.0,1240.0
6665,426.0,4920.0,1256.0
6666,426.0,4920.0,1256.0
6667,42.0,1736.0,1256.0
6668,4266.0,1736.0,1256.0
6669,426.0,1736.0,1256.0
6670,426.0,1736.0,1256.0
6671,426.0,1736.0,1256.0
6672,1056.0,1736.0,1256.0
6673,1056.0,1736.0,1256.0
6674,783.0,1736.0,1256.0
6675,783.0,1955.0,1256.0
6676,783.0,1955.0,1256.0
6677,783.0,1955.0,1100.0
6678,783.0,4704.0,3313.0
6679,783.0,5012.0,3313.0
6680,783.0,5012.0,3313.0
6681,783.0,2360.0,3313.0
6682,783.0,2360.0,3313.0
6683,783.0,2360.0,3313.0
6684,783.0,4953.0,3313.0
6685,783.0,4953.0,3313.0
6686,783.0,4953.0,3313.0
6687,783.0,4953.0,3313.0
6688,783.0,3521.0,3313.0
6689,2136.0,3521.0,3313.0
6690,2136.0,3521.0,3313.0
6691,2136.0,3521.0,3313.0
6692,2136.0,3521.0,3313.0
6693,2136.0,3521.0,3313.0
6694,2136.0,3521.0,3313.0
6695,629.0,3521.0,3313.0
6696,629.0,3521.0,3313.0
6697,629.0,3521.0,3313.0
6698,629.0,3521.0,2167.0
6699,629.0,3521.0,2167.0
6700,629.0,3521.0,2167.0
6701,629.0,3521.0,2167.0
6702,629.0,3521.0,2167.0
6703,629.0,3521.0,2167.0
6704,629.0,3521.0,2167.0
6705,629.0,3521.0,2167.0
6706,629.0,3521.0,2167.0
6707,629.0,3521.0,2167.0
6708,629.0,3521.0,2167.0
6709,629.0,3521.0,2167.0
6710,629.0,3521.0,2167.0
6711,629.0,3521.0,2167.0
6712,629.0,3521.0,2167.0
6713,629.0,3521.0,2167.0
6714,629.0,3521.0,2167.0
6715,629.0,3521.0,2167.0
6716,629.0,3521.0,2167.0
6717,629.0,3521.0,2167.0
6718,629.0,3521.0,2063.0
6719,629.0,3521.0,2063.0
6720,629.0,3521.0,2063.0
6721,629.0,3521.0,2063.0
6722,629.0,3521.0,2063.0
6723,629.0,3521.0,2063.0
6724,629.0,3521.0,2063.0
6725,629.0,3521.0,2063.0
6726,629.0,3521.0,2063.0
6727,629.0,3521.0,2063.0
6728,629.0,3521.0,2063.0
6729,455.0,3521.0,2063.0
6730,455.0,3521.0,2063.0
6731,455.0,3521.0,2063.0
6732,455.0,3521.0,2063.0
6733,455.0,3521.0,2063.0
6734,455.0,3521.0,2063.0
6735,455.0,3521.0,2063.0
6736,371.0,3521.0,2063.0
6737,371.0,3521.0,2063.0
6738,371.0,3521.0,2156.0
6739,371.0,3521.0,2156.0
6740,371.0,3521.0,908.0
6741,371.0,3521.0,908.0
6742,371.0,3521.0,908.0
6743,371.0,3521.0,908.0
6744,371.0,3521.0,908.0
6745,371.0,3521.0,1338.0
6746,371.0,3521.0,406.0
6747,371.0,3521.0,406.0
6748,371.0,3521.0,406.0
6749,371.0,3521.0,406.0
6750,371.0,3521.0,406.0
6751,371.0,3521.0,406.0
6752,371.0,3521.0,406.0
6753,371.0,3521.0,406.0
6754,371.0,3521.0,406.0
6755,371.0,3521.0,406.0
6756,371.0,3521.0,406.0
6757,371.0,3521.0,1894.0
6758,391.0,3521.0,1894.0
6759,391.0,3521.0,1894.0
6760,391.0,3087.0,1894.0
6761,391.0,3087.0,1894.0
6762,391.0,3087.0,1894.0
6763,391.0,3087.0,1894.0
6764,391.0,3087.0,1894.0
6765,391.0,3087.0,741.0
6766,391.0,3087.0,741.0
6767,391.0,3087.0,741.0
6768,391.0,3087.0,741.0
6769,391.0,3087.0,741.0
6770,391.0,3087.0,720.0
6771,391.0,3087.0,720.0
6772,391.0,3087.0,720.0
6773,391.0,3087.0,720.0
6774,482.0,3087.0,720.0
6775,482.0,3087.0,720.0
6776,482.0,3087.0,720.0
6777,482.0,3087.0,720.0
6778,251.0,3087.0,720.0
6779,251.0,3087.0,720.0
6780,251.0,3087.0,720.0
6781,348.0,3087.0,720.0
6782,348.0,3087.0,720.0
6783,348.0,3087.0,720.0
6915,513.0,2295.0,621.0
6916,513.0,2295.0,621.0
6917,513.0,2295.0,621.0
6918,513.0,2295.0,2128.0
6919,513.0,2295.0,399.0
6920,513.0,2295.0,399.0
6921,513.0,2295.0,1546.0
6922,513.0,2295.0,1546.0
6923,513.0,2295.0,1546.0
6924,660.0,2295.0,1546.0
6925,660.0,2295.0,1546.0
6926,539.0,2295.0,1546.0
6927,539.0,2295.0,1546.0
6928,539.0,2295.0,1546.0
6929,539.0,2295.0,1546.0
6930,539.0,2295.0,791.0
6931,539.0,2295.0,791.0
6932,539.0,2295.0,791.0
6933,539.0,2295.0,1630.0
6934,539.0,2295.0,1630.0
6935,539.0,2295.0,1630.0
6936,411.0,2295.0,1630.0
6937,411.0,2295.0,1630.0
6938,411.0,2295.0,1630.0
6939,411.0,1630.0,3319.0
6940,411.0,1630.0,3319.0
6941,411.0,1630.0,3319.0
6942,411.0,1630.0,3319.0
6943,411.0,1630.0,3319.0
6944,411.0,1630.0,3319.0
6945,411.0,1630.0,3319.0
6946,411.0,647.0,3319.0
6947,411.0,647.0,3319.0
6948,592.0,647.0,3319.0
6949,592.0,647.0,3319.0
6950,592.0,647.0,3319.0
6951,592.0,647.0,3319.0
6952,592.0,647.0,3319.0
6953,592.0,886.0,3319.0
6954,592.0,886.0,3319.0
6955,592.0,886.0,3319.0
6956,592.0,886.0,3319.0
6957,592.0,886.0,3319.0
6958,592.0,886.0,3319.0
6959,592.0,886.0,3319.0
6960,592.0,886.0,3319.0
6961,592.0,886.0,3319.0
6962,358.0,886.0,3319.0
6963,358.0,886.0,3319.0
6964,358.0,886.0,3319.0
6965,358.0,886.0,3319.0
6966,358.0,886.0,3319.0
6967,358.0,886.0,3319.0
6968,358.0,886.0,3094.0
6969,358.0,886.0,3094.0
6970,358.0,886.0,3094.0
6971,358.0,1805.0,3094.0
6972,358.0,1805.0,3094.0
6973,358.0,1805.0,3094.0
6974,399.0,1805.0,3094.0
6975,399.0,1805.0,3094.0
6976,399.0,1805.0,3094.0
6977,399.0,1805.0,3094.0
6978,367.0,1805.0,3094.0
6979,367.0,1805.0,3094.0
6980,367.0,1805.0,3094.0
6981,367.0,1805.0,2244.0
6982,367.0,1805.0,2244.0
6983,367.0,1805.0,2244.0
6984,367.0,1805.0,2244.0
6985,367.0,1805.0,2244.0
6986,367.0,1805.0,2244.0
6987,367.0,1805.0,2244.0
6988,367.0,1805.0,2244.0
6989,367.0,1191.0,2244.0
6990,367.0,1191.0,2244.0
6991,367.0,1191.0,2244.0
6992,344.0,1191.0,2244.0
6993,224.0,1191.0,2244.0
6994,224.0,1191.0,2344.0
6995,224.0,1191.0,2344.0
6996,224.0,1191.0,2344.0
6997,224.0,1191.0,2344.0
6998,224.0,1191.0,3592.0
6999,224.0,1191.0,3592.0
7000,224.0,1191.0,3592.0
7001,224.0,1191.0,3592.0
7002,461.0,1191.0,3592.0
7003,461.0,1773.0,3592.0
7004,595.0,1773.0,3592.0
7005,595.0,1773.0,3592.0
7006,595.0,1773.0,3592.0
7007,465.0,1773.0,3592.0
7008,431.0,1773.0,3592.0
7009,431.0,1773.0,3592.0
7010,431.0,1773.0,3592.0
7011,431.0,1773.0,3592.0
7012,431.0,1773.0,3592.0
7013,451.0,1773.0,3104.0
7014,451.0,1773.0,3104.0
7015,635.0,1773.0,3104.0
7016,635.0,1773.0,3104.0
7017,635.0,1773.0,3104.0
7018,221.0,1773.0,3.0
7019,635.0,1773.0,3104.0
7020,635.0,1773.0,3104.0
7021,635.0,1773.0,3104.0
7022,635.0,1773.0,3104.0
7023,635.0,1773.0,3104.0
7024,635.0,1773.0,3104.0
7025,635.0,1773.0,3104.0
7026,635.0,1773.0,3104.0
7027,635.0,1773.0,3104.0
7028,635.0,1773.0,3104.0
7029,635.0,1773.0,3104.0
7030,635.0,1773.0,2741.0
7031,635.0,1773.0,2741.0
7032,635.0,1773.0,2741.0
7033,635.0,1773.0,2741.0
7034,65.0,1773.0,2741.0
7035,6335.0,1773.0,2741.0
7036,635.0,1773.0,2741.0
7037,635.0,1773.0,2741.0
7038,635.0,1773.0,2741.0
7039,635.0,1773.0,2741.0
7040,635.0,1773.0,2741.0
7041,635.0,1773.0,2741.0
7042,635.0,1773.0,2741.0
7043,635.0,1773.0,2741.0
7044,635.0,1773.0,2741.0
7045,635.0,1773.0,2741.0
7046,635.0,1773.0,2741.0
7047,635.0,1773.0,2741.0
7185,776.0,1823.0,2763.0
7186,776.0,1823.0,2763.0
7187,449.0,1823.0,2763.0
7188,449.0,300.0,2763.0
7189,449.0,300.0,2763.0
7190,1360.0,300.0,2763.0
7191,1360.0,300.0,2763.0
7192,1360.0,300.0,4399.0
7193,1360.0,300.0,4399.0
7194,1361360.0,300.0,4399.0
7195,1360.0,300.0,4399.0
7196,706.0,300.0,3468.0
7197,1054.0,300.0,3468.0
7198,1054.0,300.0,3468.0
7199,1054.0,300.0,3468.0
7200,998.0,300.0,3468.0
7201,998.0,300.0,3468.0
7202,938.0,300.0,3468.0
7203,938.0,300.0,3468.0
7204,938.0,974.0,3468.0
7205,938.0,974.0,3468.0
7206,938.0,974.0,3468.0
7207,938.0,974.0,3468.0
7208,938.0,974.0,3468.0
7209,938.0,1288.0,3468.0
7210,938.0,1288.0,3468.0
7211,938.0,1288.0,3468.0
7212,938.0,1288.0,3468.0
7213,938.0,667.0,3468.0
7214,938.0,667.0,3468.0
7215,938.0,1219.0,3468.0
7216,938.0,1216.0,3468.0
7217,938.0,1216.0,3468.0
7218,938.0,1216.0,3468.0
7219,938.0,1216.0,3468.0
7220,938.0,1216.0,3468.0
7221,938.0,1216.0,3468.0
7222,938.0,1216.0,3468.0
7223,938.0,1321.0,3468.0
7224,938.0,1321.0,3468.0
7225,938.0,1321.0,3468.0
7226,770.0,1321.0,3468.0
7227,770.0,1321.0,3468.0
7228,770.0,1321.0,3468.0
7229,770.0,1321.0,3468.0
7230,770.0,1321.0,3468.0
7231,770.0,1321.0,3468.0
7232,770.0,1321.0,3468.0
7233,770.0,1321.0,3468.0
7234,770.0,1321.0,3468.0
7235,501.0,1321.0,3468.0
7236,501.0,1321.0,3468.0
7237,501.0,1321.0,3468.0
7238,501.0,1321.0,3468.0
7239,501.0,1321.0,3468.0
7240,501.0,1321.0,3468.0
7241,501.0,530.0,3468.0
7242,501.0,842.0,3468.0
7243,501.0,842.0,3468.0
7244,501.0,842.0,3468.0
7245,501.0,842.0,3468.0
7246,5001.0,1875.0,3468.0
7247,501.0,1875.0,3468.0
7248,501.0,1875.0,3982.0
7249,491.0,1875.0,3982.0
7250,491.0,1875.0,3982.0
7251,491.0,1875.0,3982.0
7252,491.0,1875.0,3261.0
7253,491.0,1875.0,3261.0
7254,491.0,1875.0,3261.0
7255,491.0,1875.0,3261.0
7256,491.0,1875.0,3261.0
7257,491.0,1875.0,3261.0
7258,491.0,1875.0,3261.0
7259,491.0,1875.0,3261.0
7260,491.0,1875.0,3261.0
7261,491.0,1875.0,1804.0
7262,491.0,1875.0,1804.0
7263,491.0,1875.0,1804.0
7264,491.0,1875.0,1804.0
7265,491.0,1875.0,1804.0
7266,368.0,1875.0,1804.0
7267,368.0,1875.0,1804.0
7268,368.0,1875.0,1804.0
7269,368.0,1875.0,1804.0
7270,368.0,1875.0,1804.0
7271,368.0,1875.0,1804.0
7272,368.0,1875.0,1804.0
7273,368.0,1875.0,1804.0
7274,368.0,1875.0,1804.0
7275,368.0,804.0,1804.0
7276,368.0,804.0,1804.0
7277,368.0,804.0,1804.0
7278,368.0,804.0,1804.0
7279,368.0,804.0,1804.0
7280,368.0,804.0,1804.0
7281,368.0,804.0,1804.0
7282,368.0,804.0,1804.0
7283,368.0,804.0,1804.0
7284,368.0,804.0,1804.0
7285,368.0,804.0,1804.0
7286,368.0,804.0,1804.0
7287,368.0,804.0,1804.0
7288,368.0,804.0,1804.0
7289,368.0,804.0,1804.0
7290,368.0,804.0,1804.0
7291,368.0,804.0,1804.0
7292,368.0,804.0,1804.0
7293,368.0,804.0,3449.0
7294,368.0,1103.0,3449.0
7295,368.0,1103.0,3449.0
7296,523.0,1103.0,3449.0
7297,583.0,920.0,3449.0
7298,583.0,920.0,3449.0
7299,583.0,920.0,3449.0
7300,767.0,920.0,3449.0
7301,767.0,920.0,3449.0
7302,767.0,920.0,3449.0
7303,50.0,920.0,3449.0
7304,767.0,920.0,3449.0
7305,767.0,920.0,3449.0
7306,767.0,920.0,3449.0
7307,767.0,920.0,3449.0
7308,767.0,920.0,3449.0
7309,767.0,920.0,3449.0
7310,767.0,1277.0,3449.0
7311,767.0,1277.0,3449.0
7312,767.0,1277.0,3449.0
7313,767.0,1277.0,3449.0
7442,754.0,1215.0,2705.0
7443,543.0,1215.0,2914.0
7444,376.0,1215.0,2914.0
7445,376.0,1215.0,2914.0
7446,376.0,246.0,2914.0
7447,376.0,246.0,2914.0
7448,376.0,246.0,2914.0
7449,376.0,246.0,2914.0
7450,376.0,2628.0,2914.0
7451,414.0,1646.0,2914.0
7452,308.0,271.0,2914.0
7453,308.0,271.0,2914.0
7454,412.0,271.0,2914.0
7455,412.0,271.0,2914.0
7456,431.0,271.0,2914.0
7457,431.0,271.0,2914.0
7458,431.0,271.0,2914.0
7459,431.0,271.0,2914.0
7460,431.0,271.0,2607.0
7461,431.0,271.0,2607.0
7462,431.0,271.0,2091.0
7463,499.0,271.0,2091.0
7464,499.0,271.0,2091.0
7465,499.0,271.0,2091.0
7466,499.0,271.0,2091.0
7467,499.0,271.0,3036.0
7468,499.0,271.0,3036.0
7469,499.0,271.0,3036.0
7470,499.0,271.0,3036.0
7471,499.0,271.0,2883.0
7472,499.0,271.0,2883.0
7473,499.0,271.0,4847.0
7474,499.0,271.0,4847.0
7475,499.0,271.0,3929.0
7476,1002.0,697.0,3929.0
7477,1002.0,697.0,3929.0
7478,1002.0,2119.0,3929.0
7479,1002.0,2119.0,3929.0
7480,1002.0,2119.0,3929.0
7481,1002.0,2119.0,3929.0
7482,1002.0,2119.0,3929.0
7483,1002.0,2119.0,5361.0
7484,1002.0,2119.0,2568.0
7485,1002.0,2119.0,2568.0
7486,1002.0,2119.0,2568.0
7487,1002.0,2119.0,2568.0
7488,1002.0,2119.0,2568.0
7489,1002.0,2119.0,2568.0
7490,1002.0,2119.0,2568.0
7491,1002.0,2119.0,2568.0
7492,1002.0,2119.0,2339.0
7493,1002.0,2119.0,2339.0
7494,1002.0,2119.0,2339.0
7495,1002.0,2119.0,2339.0
7496,1002.0,2119.0,2339.0
7497,1002.0,2119.0,2339.0
7498,884.0,2119.0,2339.0
7499,884.0,2119.0,2339.0
7500,884.0,2119.0,2339.0
7501,884.0,2119.0,2339.0
7502,884.0,2119.0,2339.0
7503,884.0,2119.0,1438.0
7504,884.0,2119.0,1438.0
7505,884.0,2119.0,1438.0
7506,884.0,2119.0,1438.0
7507,884.0,2119.0,1438.0
7508,884.0,1493.0,1438.0
7509,431.0,1493.0,1438.0
7510,431.0,1493.0,1438.0
7511,431.0,1493.0,3175.0
7512,431.0,1493.0,3175.0
7513,431.0,1493.0,3175.0
7514,431.0,1493.0,3175.0
7515,431.0,1493.0,3175.0
7516,431.0,1493.0,3175.0
7517,431.0,1324.0,3175.0
7518,431.0,1324.0,3175.0
7519,431.0,1656.0,3175.0
7520,431.0,1656.0,3175.0
7521,431.0,1656.0,3175.0
7522,431.0,1656.0,3175.0
7523,569.0,1656.0,3175.0
7524,4.0,1240.0,3175.0
7525,569569.0,1340.0,3978.0
7526,6.0,1340.0,1029.0
7527,74959.0,1340.0,2274.0
7528,959.0,1340.0,2274.0
7529,959.0,1340.0,2274.0
7530,959.0,1340.0,2274.0
7531,529.0,1340.0,2274.0
7532,529.0,1340.0,2274.0
7533,482.0,1340.0,2274.0
7534,482.0,1340.0,2008.0
7535,482.0,1340.0,2008.0
7536,482.0,1340.0,2008.0
7537,482.0,1340.0,2008.0
7538,482.0,1340.0,2008.0
7539,482.0,1340.0,2008.0
7540,482.0,1340.0,2008.0
7541,482.0,1836.0,2008.0
7542,482.0,1617.0,2008.0
7543,482.0,1617.0,2008.0
7544,388.0,1617.0,2008.0
7545,388.0,1617.0,2617.0
7546,388.0,1617.0,2617.0
7547,388.0,1617.0,2617.0
7548,388.0,1617.0,3463.0
7549,708.0,1617.0,3463.0
7550,708.0,1617.0,2252.0
7551,708.0,1617.0,2252.0
7552,708.0,1617.0,4534.0
7553,708.0,1617.0,4534.0
7554,708.0,1617.0,4534.0
7555,4888.0,1617.0,4534.0
7556,488.0,1617.0,4534.0
7557,488.0,1617.0,2927.0
7558,488.0,1617.0,2927.0
7559,488.0,1617.0,3252.0
7560,358.0,1617.0,3252.0
7561,358.0,1617.0,3861.0
7562,470.0,1617.0,3861.0
7563,470.0,1617.0,3861.0
7564,535.0,1617.0,3861.0
7565,535.0,1617.0,3861.0
7566,711.0,1617.0,3861.0
7567,563.0,1617.0,3861.0
7568,563.0,1617.0,3861.0
7569,563.0,1617.0,3861.0
7570,563.0,1617.0,3861.0
7571,563.0,1617.0,3861.0
7711,1059.0,1674.0,6487.0
7712,300.0,1674.0,6487.0
7713,300.0,1674.0,6487.0
7714,1066.0,1674.0,6487.0
7715,1066.0,1674.0,6487.0
7716,1066.0,1674.0,4225.0
7717,1066.0,1674.0,4225.0
7718,1066.0,1674.0,2806.0
7719,1066.0,1674.0,2806.0
7720,1066.0,1674.0,2806.0
7721,1066.0,1674.0,2806.0
7722,1066.0,1674.0,2639.0
7723,1066.0,1674.0,2639.0
7724,1066.0,1674.0,2639.0
7725,1066.0,1674.0,2639.0
7726,365.0,1674.0,2639.0
7727,365.0,1674.0,2639.0
7728,365.0,966.0,2639.0
7729,365.0,966.0,2639.0
7730,252.0,966.0,2639.0
7731,252.0,966.0,2639.0
7732,612.0,966.0,2639.0
7733,62.0,966.0,2639.0
7734,6112.0,966.0,4349.0
7735,612.0,966.0,3906.0
7736,612.0,966.0,1696.0
7737,612.0,1561.0,1696.0
7738,594.0,1561.0,1696.0
7739,594.0,1561.0,1696.0
7740,594.0,1561.0,1696.0
7741,404.0,1561.0,1696.0
7742,404.0,1561.0,1696.0
7743,666.0,1561.0,1696.0
7744,666.0,1561.0,1696.0
7745,666.0,1561.0,1696.0
7746,493.0,1561.0,1696.0
7747,493.0,1561.0,1696.0
7748,599.0,1561.0,1696.0
7749,599.0,1561.0,1696.0
7750,599.0,1561.0,1696.0
7751,599.0,1561.0,1696.0
7752,599.0,1561.0,1696.0
7753,599.0,1561.0,2529.0
7754,599.0,1561.0,2529.0
7755,599.0,1561.0,2529.0
7756,599.0,1561.0,2529.0
7757,599.0,908.0,2529.0
7758,599.0,908.0,2529.0
7759,518.0,908.0,2529.0
7760,518.0,908.0,2529.0
7761,518.0,908.0,2529.0
7762,518.0,908.0,2529.0
7763,518.0,908.0,2529.0
7764,518.0,908.0,2529.0
7765,518.0,908.0,2529.0
7766,518.0,908.0,2309.0
7767,518.0,908.0,2309.0
7768,518.0,908.0,2309.0
7769,518.0,908.0,2309.0
7770,518.0,908.0,2309.0
7771,518.0,908.0,2309.0
7772,518.0,908.0,2309.0
7773,518.0,908.0,2309.0
7774,518.0,908.0,2309.0
7775,518.0,908.0,2309.0
7776,186.0,908.0,2309.0
7777,488.0,908.0,2309.0
7778,488.0,908.0,2309.0
7779,488.0,1198.0,2309.0
7780,488.0,1198.0,2309.0
7781,488.0,1198.0,2309.0
7782,8.0,1268.0,2309.0
7783,48883.0,1268.0,2309.0
7784,483.0,1268.0,2309.0
7785,483.0,2176.0,2309.0
7786,483.0,2176.0,2309.0
7787,483.0,2176.0,2309.0
7788,483.0,2176.0,2215.0
7789,483.0,2176.0,2215.0
7790,483.0,1670.0,2215.0
7791,483.0,1670.0,2215.0
7792,483.0,1670.0,2215.0
7793,483.0,1670.0,2215.0
7794,483.0,1670.0,2215.0
7795,483.0,1670.0,2215.0
7796,483.0,1670.0,2215.0
7797,483.0,1670.0,2215.0
7798,483.0,1670.0,2215.0
7799,483.0,1670.0,2215.0
7800,174.0,1670.0,2215.0
7801,174.0,1670.0,2215.0
7802,174.0,1295.0,2215.0
7803,174.0,1295.0,2215.0
7804,174.0,1295.0,2215.0
7805,174.0,1295.0,2215.0
7806,174.0,1295.0,2215.0
7807,174.0,1295.0,2215.0
7808,174.0,1295.0,2215.0
7809,727.0,1295.0,2215.0
7810,727.0,1295.0,2215.0
7811,727.0,1295.0,2215.0
7812,459.0,1295.0,2215.0
7813,802.0,1295.0,2215.0
7814,1102.0,1295.0,2215.0
7815,1102.0,1295.0,2215.0
7816,306.0,1295.0,2215.0
7817,306.0,1295.0,2215.0
7818,306.0,1295.0,2215.0
7819,346.0,1295.0,2215.0
7820,346.0,1295.0,2215.0
7821,241.0,1295.0,2215.0
7822,241.0,1295.0,2215.0
7823,241.0,1295.0,2215.0
7824,241.0,1295.0,2215.0
7825,241.0,1079.0,2215.0
7826,241.0,1079.0,2215.0
7827,241.0,1079.0,2215.0
7828,241.0,1079.0,2215.0
7829,241.0,1079.0,2215.0
7830,241.0,1079.0,2215.0
7831,424.0,1079.0,2215.0
7832,757.0,1079.0,2215.0
7833,757.0,1079.0,2215.0
7834,321.0,1079.0,2215.0
7835,539.0,1079.0,2215.0
7836,539.0,1079.0,2044.0
7837,539.0,1682.0,2044.0
7838,539.0,1768.0,2044.0
7839,539.0,1667.0,2044.0
7840,556.0,1667.0,2044.0
7841,556.0,1667.0,2044.0
7842,556.0,1356.0,2085.0
7843,556.0,1356.0,2085.0
7844,556.0,1356.0,3176.0
7845,556.0,1356.0,3329.0
7846,556.0,1356.0,3673.0
7847,556.0,1356.0,2235.0
7988,937.0,604.0,3044.0
7989,921.0,604.0,3044.0
7990,921.0,604.0,3044.0
7991,921.0,604.0,3044.0
7992,921.0,604.0,3044.0
7993,921.0,604.0,3044.0
7994,921.0,604.0,3044.0
7995,921.0,604.0,3044.0
7996,492.0,604.0,3044.0
7997,492.0,604.0,3044.0
7998,492.0,604.0,3044.0
7999,492.0,604.0,3044.0
8000,624.0,604.0,3044.0
8001,624.0,604.0,3044.0
8002,624.0,604.0,3044.0
8003,624.0,604.0,3044.0
8004,24.0,604.0,3044.0
8005,6624.0,604.0,3044.0
8006,624.0,604.0,3044.0
8007,624.0,604.0,3044.0
8008,624.0,604.0,3044.0
8009,624.0,604.0,3044.0
8010,624.0,604.0,3044.0
8011,624.0,604.0,3044.0
8012,624.0,604.0,3044.0
8013,624.0,604.0,3044.0
8014,624.0,604.0,3044.0
8015,624.0,604.0,3044.0
8016,624.0,604.0,3044.0
8017,624.0,604.0,3044.0
8018,624.0,604.0,3044.0
8019,624.0,604.0,3044.0
8020,624.0,604.0,3044.0
8021,624.0,604.0,3044.0
8022,624.0,604.0,3044.0
8023,624.0,604.0,3044.0
8024,624.0,604.0,3044.0
8025,624.0,604.0,3044.0
8026,624.0,604.0,3044.0
8027,624.0,604.0,3044.0
8028,624.0,604.0,3044.0
8029,624.0,604.0,3044.0
8030,624.0,604.0,3044.0
8031,624.0,604.0,3044.0
8032,624.0,604.0,3044.0
8033,624.0,604.0,3044.0
8034,624.0,604.0,3044.0
8035,624.0,604.0,3044.0
8036,624.0,604.0,3044.0
8037,624.0,604.0,3044.0
8038,624.0,604.0,3044.0
8039,624.0,604.0,3044.0
8040,624.0,604.0,3044.0
8041,624.0,604.0,3044.0
8042,624.0,604.0,3044.0
8043,624.0,604.0,3044.0
8044,624.0,604.0,3044.0
8045,979.0,604.0,3044.0
8046,979.0,604.0,3044.0
8047,979.0,604.0,3044.0
8048,979.0,604.0,3044.0
8049,979.0,604.0,2466.0
8050,979.0,604.0,2466.0
8051,979.0,604.0,2466.0
8052,979.0,604.0,2466.0
8053,979.0,604.0,2466.0
8054,674.0,604.0,2748.0
8055,674.0,604.0,2748.0
8056,674.0,604.0,2748.0
8057,674.0,604.0,2748.0
8058,674.0,604.0,2748.0
8059,674.0,604.0,2748.0
8060,674.0,604.0,2748.0
8061,674.0,604.0,2748.0
8062,754.0,604.0,2748.0
8063,754.0,604.0,2748.0
8064,754.0,604.0,2748.0
8065,754.0,604.0,2748.0
8066,378.0,604.0,2748.0
8067,796.0,604.0,3129.0
8068,796.0,604.0,3129.0
8069,796.0,604.0,3129.0
8070,796.0,604.0,3129.0
8071,796.0,604.0,3129.0
8072,796.0,604.0,3129.0
8073,796.0,604.0,3129.0
8074,796.0,604.0,3129.0
8075,155.0,604.0,4030.0
8076,155.0,604.0,4030.0
8077,352.0,604.0,4030.0
8078,352.0,604.0,4030.0
8079,809.0,604.0,4030.0
8080,809.0,604.0,4030.0
8081,284.0,604.0,4030.0
8082,284.0,604.0,4030.0
8083,284.0,604.0,4030.0
8084,284.0,604.0,885.0
8085,284.0,604.0,885.0
8086,723.0,604.0,885.0
8087,723.0,604.0,885.0
8088,723.0,604.0,885.0
8089,723.0,604.0,885.0
8090,723.0,604.0,885.0
8091,723.0,604.0,885.0
8092,723.0,604.0,885.0
8093,723.0,604.0,885.0
8094,723.0,604.0,3849.0
8095,723.0,604.0,3849.0
8096,723.0,604.0,2899.0
8097,723.0,604.0,2899.0
8212,1221.0,3024.0,2138.0
8213,1221.0,3024.0,995.0
8214,1221.0,2672.0,995.0
8215,713.0,2672.0,995.0
8216,713.0,2672.0,995.0
8217,713.0,2672.0,995.0
8218,713.0,2672.0,995.0
8219,682.0,2672.0,995.0
8220,682.0,2672.0,995.0
8221,682.0,2143.0,995.0
8222,682.0,2143.0,995.0
8223,682.0,3130.0,995.0
8224,682.0,3130.0,995.0
8225,682.0,3130.0,995.0
8226,682.0,3130.0,995.0
8227,682.0,3130.0,995.0
8228,682.0,3130.0,1084.0
8229,682.0,3130.0,1084.0
8230,682.0,3130.0,1084.0
8231,682.0,3130.0,1084.0
8232,682.0,3130.0,1875.0
8233,682.0,3130.0,1875.0
8234,682.0,3130.0,1875.0
8235,682.0,3130.0,1875.0
8236,682.0,3130.0,1875.0
8237,682.0,2598.0,1875.0
8238,682.0,2598.0,958.0
8239,479.0,2598.0,958.0
8240,734.0,2598.0,958.0
8241,734.0,2598.0,958.0
8242,734.0,3140.0,958.0
8243,734.0,3140.0,958.0
8244,734.0,3140.0,958.0
8245,734.0,3140.0,2271.0
8246,734.0,3140.0,2271.0
8247,301.0,3140.0,2271.0
8248,301.0,3140.0,2271.0
8249,122.0,3140.0,2271.0
8250,301.0,3140.0,2271.0
8251,301.0,3140.0,2271.0
8252,301.0,3140.0,2271.0
8253,301.0,3832.0,2271.0
8254,301.0,3832.0,2271.0
8255,301.0,3832.0,2271.0
8256,301.0,3832.0,2271.0
8257,301.0,3832.0,2271.0
8258,910.0,3832.0,2271.0
8259,1209.0,3858.0,2271.0
8260,1209.0,3858.0,2271.0
8261,1209.0,3858.0,2271.0
8262,952.0,3858.0,2271.0
8263,1021.0,3858.0,2271.0
8264,1021.0,4353.0,2271.0
8265,1021.0,4353.0,2271.0
8266,1021.0,4353.0,1403.0
8267,1021.0,4353.0,1403.0
8268,1021.0,4353.0,1403.0
8269,1021.0,4353.0,1403.0
8270,1021.0,4353.0,1403.0
8271,1021.0,4353.0,1403.0
8272,1021.0,4353.0,1403.0
8273,1021.0,4353.0,1403.0
8274,1021.0,4353.0,1403.0
8275,1021.0,4353.0,1403.0
8276,1021.0,4353.0,1403.0
8277,1021.0,4353.0,1403.0
8278,1021.0,4353.0,1403.0
8279,1021.0,4353.0,1403.0
8280,1021.0,4353.0,1403.0
8281,881.0,4353.0,1403.0
8282,881.0,4353.0,1403.0
8283,1154.0,4353.0,1403.0
8284,1154.0,4353.0,1403.0
8285,1154.0,4353.0,1403.0
8286,1154.0,4353.0,1403.0
8287,1154.0,3342.0,1403.0
8288,1154.0,3342.0,1403.0
8289,1154.0,2787.0,1403.0
8290,1154.0,2787.0,1403.0
8291,1154.0,2787.0,1403.0
8292,1154.0,2787.0,1403.0
8293,1154.0,2787.0,1403.0
8294,1154.0,2787.0,1403.0
8295,554.0,2787.0,1403.0
8296,554.0,2787.0,1403.0
8297,554.0,2787.0,1403.0
8298,1322.0,2787.0,1403.0
8299,1322.0,2787.0,1403.0
8300,1322.0,4088.0,1403.0
8301,1322.0,4088.0,1403.0
8302,1322.0,4088.0,1403.0
8303,1322.0,2915.0,1403.0
8304,1322.0,2915.0,1403.0
8305,1322.0,2915.0,1403.0
8306,1322.0,3258.0,1403.0
8307,1322.0,3258.0,1403.0
8308,1322.0,3258.0,1403.0
8309,1322.0,3258.0,1403.0
8310,1322.0,3103.0,1403.0
8311,1322.0,3103.0,1403.0
8312,1322.0,3103.0,1403.0
8313,1322.0,3103.0,1403.0
8314,1322.0,3103.0,1403.0
8315,1322.0,3103.0,1403.0
8316,1.0,3103.0,1403.0
8317,1322322.0,3103.0,1403.0
8318,1322.0,3103.0,1403.0
8319,1322.0,3103.0,1403.0
8320,525.0,3103.0,1403.0
8321,176.0,3103.0,1403.0
8322,176.0,1646.0,1403.0
8323,176.0,1646.0,1403.0
8324,176.0,1646.0,1403.0
8325,176.0,1646.0,1403.0
8326,176.0,4654.0,1403.0
8327,176.0,4654.0,1403.0
8328,176.0,4654.0,1403.0
8329,695.0,4654.0,1403.0
8330,710.0,4654.0,1403.0
8331,710.0,4654.0,1403.0
8332,710.0,4654.0,1403.0
8333,710.0,4654.0,1403.0
8334,710.0,4654.0,1403.0
8335,710.0,4654.0,1403.0
8336,710.0,4654.0,1403.0
8337,710.0,4654.0,1403.0
8338,710.0,2934.0,1403.0
8339,710.0,2934.0,1403.0
8340,710.0,2934.0,1403.0
8341,710.0,2934.0,1403.0
8342,710.0,2934.0,1403.0
8343,710.0,2934.0,1515.0
8344,900.0,2934.0,1515.0
8345,900.0,2934.0,1515.0
8346,750.0,2934.0,1515.0
8347,750.0,2934.0,1515.0
8348,750.0,2934.0,1515.0
8638,318.0,73.0,691.0
8639,318.0,73.0,691.0
8640,34.0,73.0,691.0
8641,149149.0,248.0,691.0
8642,149.0,558.0,691.0
8643,149.0,235.0,691.0
8644,149.0,235.0,691.0
8645,149.0,235.0,691.0
8646,149.0,235.0,691.0
8647,149.0,235.0,691.0
8648,149.0,235.0,691.0
8649,149.0,235.0,691.0
8650,149.0,235.0,691.0
8651,149.0,235.0,691.0
8652,149.0,235.0,691.0
8653,149.0,235.0,691.0
8654,149.0,235.0,691.0
8655,149.0,349.0,691.0
8656,149.0,349.0,691.0
8657,149.0,349.0,691.0
8658,149.0,349.0,1282.0
8659,149.0,349.0,1066.0
8660,149.0,349.0,1066.0
8661,149.0,349.0,1602.0
8662,149.0,349.0,1213.0
8663,149.0,349.0,1213.0
8664,149.0,349.0,1213.0
8665,149.0,418.0,1213.0
8666,149.0,418.0,1213.0
8667,239.0,380.0,1213.0
8668,239.0,380.0,1213.0
8669,239.0,380.0,1213.0
8670,239.0,239.0,1213.0
8671,239.0,239.0,1213.0
8672,9.0,239.0,883.0
8673,239.0,239.0,883.0
8674,239.0,239.0,1647.0
8675,239.0,239.0,1647.0
8676,239.0,239.0,1647.0
8677,239.0,504.0,1647.0
8678,239.0,504.0,1647.0
8679,310.0,504.0,1647.0
8680,310.0,504.0,1647.0
8681,379.0,504.0,1647.0
8682,514.0,504.0,1647.0
8683,514.0,504.0,1647.0
8684,427.0,504.0,1647.0
8685,427.0,504.0,1647.0
8686,231.0,504.0,1647.0
8687,231.0,504.0,1647.0
8688,601.0,504.0,1647.0
8689,456.0,504.0,1647.0
8690,456.0,504.0,1647.0
8691,456.0,310.0,1647.0
8692,456.0,310.0,1647.0
8693,456.0,624.0,1647.0
8694,56.0,624.0,1647.0
8695,623.0,624.0,1647.0
8696,623.0,365.0,1647.0
8697,623.0,570.0,1647.0
8698,306.0,283.0,1647.0
8699,306.0,283.0,1647.0
8700,415.0,526.0,1647.0
8701,415.0,200.0,1647.0
8702,415.0,200.0,1647.0
8703,415.0,200.0,1647.0
8704,415.0,678.0,1647.0
8705,415.0,678.0,1647.0
8706,415.0,182.0,1647.0
8707,415.0,323.0,1647.0
8708,415.0,323.0,1647.0
8709,616.0,323.0,1647.0
8710,616.0,323.0,1647.0
8711,20416.0,323.0,683.0
8712,6616.0,323.0,683.0
8713,616.0,323.0,498.0
8714,616.0,379.0,498.0
8715,616.0,379.0,498.0
8716,616.0,379.0,254.0
8717,616.0,379.0,687.0
8718,616.0,379.0,1061.0
8719,616.0,379.0,1883.0
8720,616.0,379.0,1883.0
8721,616.0,448.0,1883.0
8722,616.0,376.0,1883.0
8723,616.0,376.0,852.0
8724,616.0,376.0,1211.0
8725,616.0,376.0,1211.0
8726,616.0,376.0,1211.0
8727,655.0,376.0,1211.0
8728,655.0,376.0,1211.0
8729,406.0,189.0,1211.0
8730,406.0,394.0,604.0
8731,406.0,394.0,1301.0
8732,406.0,394.0,1301.0
8733,406.0,394.0,735.0
8734,444.0,257.0,735.0
8735,444.0,257.0,735.0
8736,345.0,257.0,735.0
8737,345.0,323.0,735.0
8738,345.0,323.0,735.0
8739,345.0,323.0,735.0
8740,345.0,323.0,735.0
8741,345.0,323.0,516.0
8742,345.0,323.0,1586.0
8743,345.0,323.0,1586.0
8744,345.0,323.0,1586.0
8745,345.0,323.0,1603.0
8746,345.0,323.0,1603.0
8747,345.0,323.0,1603.0
8748,345.0,323.0,1603.0
8749,345.0,323.0,937.0
8750,345.0,323.0,937.0
8751,345.0,353.0,1290.0
8752,345.0,353.0,1290.0
8753,345.0,703.0,1290.0
8754,345.0,703.0,1290.0
8755,345.0,703.0,1290.0
8756,345.0,181.0,1290.0
8757,345.0,317.0,1290.0
8758,345.0,317.0,1290.0
8759,345.0,317.0,1290.0
8760,431.0,317.0,756.0
8761,431.0,317.0,756.0
8762,431.0,317.0,756.0
8763,431.0,317.0,756.0
8764,431.0,317.0,976.0
8765,431.0,387.0,976.0
8766,431.0,387.0,976.0
8767,431.0,387.0,976.0
8768,431.0,153.0,976.0
8769,431.0,153.0,976.0
8770,431.0,153.0,976.0
8771,431.0,308.0,976.0
8772,431.0,308.0,976.0
8773,431.0,308.0,976.0
8774,431.0,387.0,976.0
8775,431.0,387.0,976.0
8776,431.0,293.0,976.0
8777,431.0,293.0,976.0
8913,183.0,531.0,973.0
8914,183.0,531.0,973.0
8915,183.0,531.0,973.0
8916,183.0,531.0,973.0
8917,498.0,531.0,973.0
8918,498.0,466.0,973.0
8919,478.0,466.0,973.0
8920,478.0,466.0,973.0
8921,478.0,466.0,973.0
8922,251.0,466.0,973.0
8923,172.0,466.0,973.0
8924,172.0,466.0,1828.0
8925,172.0,466.0,1828.0
8926,531.0,267.0,1828.0
8927,577.0,267.0,1828.0
8928,577.0,138.0,1828.0
8929,577.0,138.0,1828.0
8930,577.0,320.0,1828.0
8931,577.0,320.0,1828.0
8932,577.0,232.0,1828.0
8933,577.0,232.0,1828.0
8934,577.0,232.0,1828.0
8935,577.0,446.0,1828.0
8936,577.0,275.0,1828.0
8937,577.0,275.0,1828.0
8938,577.0,275.0,1828.0
8939,577.0,174.0,1828.0
8940,577.0,174.0,812.0
8941,577.0,174.0,812.0
8942,577.0,174.0,703.0
8943,577.0,174.0,1128.0
8944,577.0,174.0,1128.0
8945,577.0,443.0,1128.0
8946,3391.0,443.0,1128.0
8947,391.0,443.0,1128.0
8948,391.0,443.0,1128.0
8949,391.0,443.0,307.0
8950,453.0,327.0,307.0
8951,453.0,327.0,307.0
8952,453.0,327.0,1211.0
8953,453.0,327.0,1211.0
8954,453.0,327.0,1211.0
8955,453.0,327.0,1211.0
8956,453.0,327.0,1211.0
8957,453.0,327.0,762.0
8958,453.0,327.0,762.0
8959,45353.0,453.0,762.0
8960,400.0,183.0,762.0
8961,453.0,278.0,762.0
8962,453.0,278.0,824.0
8963,453.0,278.0,824.0
8964,653.0,278.0,824.0
8965,653.0,278.0,824.0
8966,653.0,278.0,931.0
8967,653.0,278.0,931.0
8968,653.0,278.0,931.0
8969,653.0,278.0,655.0
8970,653.0,278.0,655.0
8971,648.0,278.0,976.0
8972,648.0,278.0,976.0
8973,648.0,278.0,976.0
8974,648.0,278.0,976.0
8975,648.0,278.0,689.0
8976,648.0,278.0,453.0
8977,835.0,278.0,453.0
8978,360.0,278.0,453.0
8979,360.0,278.0,453.0
8980,360.0,278.0,1235.0
8981,230.0,278.0,1235.0
8982,230.0,315.0,1235.0
8983,230.0,315.0,1120.0
8984,230.0,315.0,1120.0
8985,230.0,315.0,1120.0
8986,230.0,315.0,1101.0
8987,230.0,315.0,1101.0
8988,230.0,315.0,1101.0
8989,356.0,315.0,1101.0
8990,356.0,216.0,1101.0
8991,356.0,397.0,1101.0
8992,356.0,397.0,1147.0
8993,356.0,397.0,1060.0
8994,356.0,483.0,1060.0
8995,356.0,483.0,773.0
8996,356.0,483.0,1536.0
8997,356.0,671.0,827.0
8998,356.0,671.0,827.0
8999,356.0,671.0,827.0
9000,713.0,671.0,827.0
9001,713.0,441.0,827.0
9002,713.0,382.0,827.0
9003,713.0,382.0,827.0
9004,434.0,382.0,827.0
9005,434.0,382.0,827.0
9006,434.0,321.0,827.0
9007,434.0,321.0,827.0
9008,286.0,385.0,827.0
9009,286.0,385.0,827.0
9010,176.0,385.0,827.0
9011,176.0,385.0,827.0
9012,176.0,385.0,827.0
9013,265.0,385.0,932.0
9014,265.0,385.0,932.0
9015,265.0,385.0,1299.0
9016,265.0,385.0,1299.0
9017,265.0,385.0,1299.0
9018,265.0,385.0,1299.0
9019,265.0,385.0,1299.0
9020,265.0,385.0,1299.0
9021,265.0,385.0,962.0
9022,265.0,380.0,962.0
9023,265.0,175.0,962.0
9024,265.0,274.0,962.0
9025,265.0,274.0,962.0
9026,265.0,274.0,962.0
9027,265.0,274.0,962.0
9028,265.0,274.0,962.0
9029,265.0,382.0,962.0
9030,265.0,382.0,962.0
9031,265.0,398.0,962.0
9032,265.0,398.0,962.0
9033,281.0,398.0,962.0
9034,616.0,398.0,962.0
9035,616.0,398.0,1162.0
9036,616.0,398.0,706.0
9037,394.0,398.0,510.0
9038,394.0,348.0,510.0
9039,394.0,348.0,510.0
9040,394.0,348.0,510.0
9041,394.0,348.0,510.0
9042,394.0,296.0,510.0
9043,394.0,296.0,510.0
9172,400.0,227.0,619.0
9173,400.0,227.0,362.0
9174,400.0,194.0,362.0
9175,400.0,450.0,362.0
9176,400.0,450.0,852.0
9177,400.0,450.0,852.0
9178,283.0,374.0,852.0
9179,178.0,374.0,852.0
9180,178.0,281.0,852.0
9181,178.0,281.0,852.0
9182,178.0,128.0,1098.0
9183,178.0,128.0,1098.0
9184,178.0,128.0,1268.0
9185,178.0,128.0,1268.0
9186,178.0,377.0,1268.0
9187,178.0,377.0,1268.0
9188,178.0,202.0,665.0
9189,60.0,202.0,665.0
9190,178.0,202.0,665.0
9191,178.0,279.0,665.0
9192,402.0,279.0,665.0
9193,402.0,279.0,665.0
9194,625.0,279.0,665.0
9195,247.0,279.0,717.0
9196,247.0,279.0,717.0
9197,247.0,192.0,717.0
9198,247.0,185.0,717.0
9199,247.0,143.0,717.0
9200,247.0,143.0,717.0
9201,365365.0,143.0,717.0
9202,365.0,143.0,485.0
9203,36565.0,143.0,381.0
9204,365.0,143.0,381.0
9205,365.0,143.0,381.0
9206,365.0,143.0,381.0
9207,365.0,143.0,1018.0
9208,365.0,143.0,1018.0
9209,485.0,143.0,688.0
9210,485.0,143.0,688.0
9211,228.0,143.0,688.0
9212,292.0,143.0,961.0
9213,272.0,143.0,961.0
9214,272.0,143.0,961.0
9215,298.0,143.0,1320.0
9216,298.0,143.0,920.0
9217,298.0,143.0,920.0
9218,298.0,143.0,920.0
9219,298.0,143.0,920.0
9220,298.0,143.0,920.0
9221,298.0,516.0,920.0
9222,239.0,516.0,920.0
9223,239.0,227.0,920.0
9224,239.0,189.0,920.0
9225,239.0,189.0,920.0
9226,239.0,96.0,920.0
9227,239.0,348.0,920.0
9228,239.0,231.0,920.0
9229,239.0,231.0,920.0
9230,239.0,337.0,920.0
9231,239.0,337.0,920.0
9232,239.0,410.0,920.0
9233,239.0,410.0,920.0
9234,239.0,410.0,920.0
9235,239.0,301.0,920.0
9236,239.0,301.0,920.0
9237,239.0,182.0,920.0
9238,239.0,205.0,920.0
9239,239.0,100.0,920.0
9240,239.0,100.0,920.0
9241,364.0,259.0,920.0
9242,364.0,259.0,1333.0
9243,368.0,366.0,1333.0
9244,368.0,211.0,1333.0
9245,368.0,279.0,1333.0
9246,367.0,628.0,1333.0
9247,367.0,628.0,1333.0
9248,367.0,294.0,1070.0
9249,367.0,266.0,1070.0
9250,367.0,266.0,1070.0
9251,367.0,266.0,526.0
9252,367.0,266.0,1329.0
9253,367.0,129.0,602.0
9254,367.0,308.0,602.0
9255,367.0,308.0,602.0
9256,367.0,308.0,602.0
9257,367.0,610.0,602.0
9258,367.0,383.0,602.0
9259,367.0,383.0,602.0
9260,367.0,383.0,602.0
9261,367.0,383.0,602.0
9262,367.0,132.0,602.0
9263,367.0,255.0,602.0
9264,367.0,236.0,602.0
9265,367.0,236.0,602.0
9266,367.0,236.0,602.0
9267,250.0,236.0,649.0
9268,450.0,236.0,649.0
9269,450.0,236.0,649.0
9270,476.0,236.0,649.0
9271,329.0,236.0,1114.0
9272,329.0,236.0,1114.0
9273,329.0,236.0,1114.0
9274,291.0,236.0,1114.0
9275,291.0,236.0,200.0
9276,291.0,236.0,200.0
9277,291.0,236.0,200.0
9278,291.0,236.0,909.0
9279,291.0,236.0,909.0
9280,291.0,236.0,1003.0
9281,291.0,236.0,799.0
9282,562.0,236.0,799.0
9283,562.0,236.0,1138.0
9284,562.0,236.0,1138.0
9285,562.0,236.0,1138.0
9286,562.0,236.0,1138.0
9287,470.0,236.0,1138.0
9288,470.0,236.0,1138.0
9289,470.0,129.0,1138.0
9290,350.0,129.0,1138.0
9291,229.0,129.0,1138.0
9292,229.0,129.0,1138.0
9293,229.0,321.0,1060.0
9294,229.0,321.0,1060.0
9295,30.0,281.0,1060.0
9296,430.0,547.0,1060.0
9297,430.0,547.0,1060.0
9298,430.0,547.0,1060.0
9299,430.0,547.0,1267.0
9300,430.0,547.0,427.0
9433,427.0,257.0,348.0
9434,427.0,257.0,348.0
9435,427.0,317.0,348.0
9436,427.0,317.0,348.0
9437,40.0,317.0,723.0
9438,357.0,317.0,1041.0
9439,357.0,317.0,1041.0
9440,357.0,317.0,1224.0
9441,3452.0,317.0,1293.0
9442,452.0,317.0,1293.0
9443,452.0,317.0,1293.0
9444,452.0,317.0,1293.0
9445,452.0,317.0,1293.0
9446,452.0,317.0,1293.0
9447,452.0,317.0,1293.0
9448,452.0,317.0,1293.0
9449,452.0,317.0,1293.0
9450,452.0,317.0,1293.0
9451,452.0,317.0,1293.0
9452,169.0,317.0,1293.0
9453,169.0,317.0,1293.0
9454,169.0,317.0,881.0
9455,169.0,317.0,881.0
9456,384.0,317.0,881.0
9457,384.0,317.0,881.0
9458,384.0,330.0,881.0
9459,384.0,330.0,881.0
9460,384.0,330.0,881.0
9461,384.0,330.0,881.0
9462,384.0,330.0,259.0
9463,384.0,330.0,259.0
9464,384.0,330.0,688.0
9465,384.0,330.0,688.0
9466,384.0,330.0,1328.0
9467,4254.0,330.0,1328.0
9468,38349.0,330.0,1328.0
9469,410.0,330.0,1328.0
9470,410.0,330.0,1328.0
9471,260.0,330.0,1328.0
9472,260.0,330.0,1328.0
9473,352.0,330.0,1328.0
9474,532.0,355.0,1328.0
9475,532.0,310.0,1328.0
9476,532.0,310.0,1328.0
9477,532.0,255.0,1328.0
9478,303.0,255.0,1328.0
9479,303.0,255.0,1328.0
9480,303.0,255.0,1328.0
9481,303.0,255.0,1328.0
9482,3.0,255.0,1328.0
9483,303.0,255.0,1328.0
9484,33.0,255.0,1328.0
9485,3051.0,255.0,1328.0
9486,428.0,255.0,1328.0
9487,373.0,255.0,1328.0
9488,519.0,255.0,1328.0
9489,519.0,309.0,1328.0
9490,519.0,309.0,1328.0
9491,519.0,172.0,1328.0
9492,519.0,172.0,1328.0
9493,519.0,272.0,1328.0
9494,519.0,264.0,1328.0
9495,519.0,121.0,1328.0
9496,3519.0,361.0,1328.0
9497,519.0,361.0,1328.0
9498,519.0,361.0,1328.0
9499,519.0,361.0,1328.0
9500,519.0,361.0,1328.0
9501,519.0,361.0,1328.0
9502,519.0,347.0,1328.0
9503,519.0,190.0,1328.0
9504,519.0,190.0,1328.0
9505,519.0,190.0,1328.0
9506,519.0,136.0,1328.0
9507,519.0,136.0,1328.0
9508,519.0,177.0,1328.0
9509,519.0,177.0,1328.0
9510,519.0,229.0,1328.0
9511,519.0,229.0,1328.0
9512,519.0,229.0,1328.0
9513,519.0,229.0,1328.0
9514,609.0,229.0,1328.0
9515,609.0,229.0,1328.0
9516,609.0,229.0,1328.0
9517,609.0,229.0,1328.0
9518,609.0,229.0,1328.0
9519,609.0,229.0,1328.0
9520,609.0,229.0,1328.0
9521,609.0,229.0,1328.0
9522,609.0,229.0,1138.0
9523,609.0,229.0,1138.0
9524,609.0,229.0,1138.0
9525,609.0,229.0,1138.0
9526,609.0,229.0,1138.0
9527,609.0,229.0,683.0
9528,609.0,229.0,683.0
9529,609.0,229.0,923.0
9530,609.0,224.0,927.0
9531,609.0,224.0,591.0
9532,609.0,224.0,591.0
9533,609.0,224.0,785.0
9534,609.0,224.0,1388.0
9535,609.0,224.0,384.0
9536,609.0,224.0,384.0
9537,609.0,224.0,384.0
9538,609.0,291.0,384.0
9539,60.0,161.0,384.0
9540,609.0,417.0,384.0
9541,609.0,249.0,384.0
9542,609.0,249.0,384.0
9543,609.0,249.0,437.0
9544,609.0,249.0,437.0
9545,609.0,249.0,437.0
9546,609.0,249.0,437.0
9547,609.0,249.0,437.0
9548,609.0,249.0,437.0
9549,609.0,249.0,437.0
9550,609.0,486.0,437.0
9551,609.0,486.0,437.0
9552,609.0,486.0,437.0
9553,609.0,486.0,437.0
9554,383.0,486.0,437.0
9555,383.0,486.0,437.0
9556,383.0,486.0,437.0
9557,383.0,150.0,437.0
9558,186.0,150.0,437.0
9559,186.0,165.0,437.0
9560,186.0,165.0,437.0
9561,186.0,165.0,437.0
9562,186.0,165.0,437.0
9563,186.0,165.0,1065.0
9564,186.0,165.0,985.0
9565,186.0,165.0,946.0
9566,186.0,165.0,946.0
9567,186.0,165.0,946.0
9568,186.0,165.0,612.0
9569,186.0,165.0,775.0
9570,186.0,165.0,775.0
9571,186.0,165.0,926.0
9572,186.0,165.0,926.0
9573,423.0,210.0,926.0
9574,423.0,210.0,926.0
9575,423.0,210.0,926.0
9576,423.0,210.0,926.0
9577,423.0,210.0,909.0
9712,457.0,305.0,710.0
9713,457.0,305.0,710.0
9714,457.0,305.0,710.0
9715,457.0,305.0,710.0
9716,457.0,305.0,710.0
9717,4457.0,145.0,710.0
9718,457.0,145.0,710.0
9719,57.0,145.0,710.0
9720,235.0,145.0,710.0
9721,490.0,145.0,944.0
9722,490.0,145.0,944.0
9723,490.0,145.0,944.0
9724,490.0,145.0,944.0
9725,490.0,145.0,944.0
9726,490.0,145.0,944.0
9727,490.0,145.0,944.0
9728,490.0,145.0,944.0
9729,490.0,176.0,944.0
9730,490.0,176.0,944.0
9731,490.0,176.0,1135.0
9732,490.0,271.0,1135.0
9733,490.0,271.0,1135.0
9734,490.0,271.0,1135.0
9735,207.0,271.0,1135.0
9736,207.0,271.0,1135.0
9737,351.0,271.0,1135.0
9738,351.0,271.0,1135.0
9739,351.0,271.0,436.0
9740,351.0,271.0,436.0
9741,351.0,271.0,928.0
9742,351.0,271.0,928.0
9743,351.0,271.0,928.0
9744,351.0,271.0,554.0
9745,351.0,271.0,895.0
9746,351.0,271.0,895.0
9747,521.0,275.0,895.0
9748,521.0,275.0,895.0
9749,521.0,197.0,895.0
9750,484.0,264.0,895.0
9751,484.0,264.0,895.0
9752,484.0,347.0,895.0
9753,484.0,265.0,895.0
9754,484.0,265.0,895.0
9755,484.0,265.0,895.0
9756,484.0,265.0,895.0
9757,484.0,304.0,895.0
9758,484.0,304.0,895.0
9759,484.0,304.0,895.0
9760,484.0,304.0,895.0
9761,484.0,304.0,895.0
9762,484.0,216.0,120.0
9763,484.0,216.0,120.0
9764,484.0,216.0,120.0
9765,484.0,216.0,120.0
9766,484.0,216.0,942.0
9767,350.0,216.0,1161.0
9768,350.0,216.0,1140.0
9769,385.0,216.0,502.0
9770,385.0,216.0,500.0
9771,385.0,197.0,500.0
9772,385.0,197.0,500.0
9773,385.0,197.0,1242.0
9774,147.0,304.0,1242.0
9775,147.0,179.0,1242.0
9776,147.0,179.0,1242.0
9777,147.0,158.0,1242.0
9778,442.0,158.0,1242.0
9779,442.0,324.0,1242.0
9780,442.0,324.0,1242.0
9781,442.0,324.0,733.0
9782,442.0,324.0,733.0
9783,442.0,324.0,733.0
9784,442.0,324.0,733.0
9785,442.0,324.0,733.0
9786,442.0,324.0,733.0
9787,442.0,324.0,733.0
9788,442.0,324.0,733.0
9789,442.0,324.0,733.0
9790,442.0,324.0,733.0
9791,442.0,324.0,733.0
9792,442.0,324.0,733.0
9793,442.0,324.0,733.0
9794,442.0,324.0,733.0
9795,442.0,324.0,733.0
9796,442.0,324.0,733.0
9797,442.0,324.0,733.0
9798,442.0,324.0,733.0
9799,442.0,190.0,733.0
9800,442.0,134.0,733.0
9801,442.0,134.0,733.0
9802,442.0,134.0,733.0
9803,442.0,134.0,733.0
9804,442.0,134.0,733.0
9805,442.0,134.0,733.0
9806,442.0,134.0,733.0
9807,442.0,134.0,733.0
9808,442.0,134.0,733.0
9809,442.0,279.0,733.0
9810,442.0,239.0,733.0
9811,442.0,179.0,733.0
9812,442.0,249.0,733.0
9813,442.0,97.0,733.0
9814,442.0,97.0,733.0
9815,442.0,97.0,733.0
9816,442.0,97.0,733.0
9817,442.0,97.0,733.0
9818,442.0,571.0,733.0
9819,442.0,571.0,733.0
9820,442.0,571.0,733.0
9821,442.0,571.0,733.0
9822,442.0,548.0,733.0
9823,442.0,548.0,733.0
9824,442.0,148.0,733.0
9825,442.0,148.0,733.0
9826,442.0,148.0,733.0
9827,442.0,89.0,733.0
9828,442.0,89.0,733.0
9829,442.0,211.0,733.0
9830,442.0,44.0,733.0
9831,442.0,44.0,733.0
9832,442.0,44.0,733.0
9833,402.0,114.0,733.0
9834,4442.0,153.0,733.0
9835,442.0,59.0,733.0
9836,442.0,59.0,733.0
9837,442.0,169.0,733.0
9838,442.0,295.0,733.0
9839,442.0,295.0,733.0
9840,442.0,295.0,733.0
9841,442.0,295.0,733.0
9842,442.0,295.0,733.0
9843,442.0,444.0,733.0
9844,442.0,444.0,733.0
9845,442.0,444.0,733.0
9846,442.0,444.0,733.0
9847,442.0,444.0,733.0
9848,442.0,444.0,733.0
9849,442.0,444.0,733.0
9988,496.0,241.0,665.0
9989,496.0,241.0,665.0
9990,496.0,323.0,926.0
9991,496.0,321.0,926.0
9992,496.0,257.0,794.0
9993,496.0,257.0,794.0
9994,496.0,257.0,794.0
9995,496.0,257.0,794.0
9996,496.0,257.0,794.0
9997,496.0,257.0,794.0
9998,496.0,257.0,794.0
9999,496.0,257.0,782.0
10000,496.0,257.0,782.0
10001,496.0,257.0,782.0
